name,task,channel,avg,slope,variance,skewness,kurtosis,max,min,sum
name_1,A,1,0.000763219,9.24687E-06,1.05047E-06,-0.633927639,2.021390857,0.001969547,-0.001380034,0.194620946
name_1,A,2,0.004604797,4.03606E-05,1.2942E-05,-0.980449896,2.771342117,0.008025268,-0.003538704,1.174223285
name_1,A,3,0.004540409,3.4047E-05,1.03537E-05,-1.249565486,3.091710161,0.00711911,-0.002936044,1.157804401
name_1,A,4,0.001389172,1.14812E-05,1.28531E-06,-0.254664665,1.557922707,0.002912233,-0.0005466,0.354238829
name_1,A,5,0.001002106,1.82667E-05,2.43142E-06,-0.392686412,2.102291566,0.003066516,-0.002185109,0.255536976
name_1,A,6,0.000363756,4.97325E-06,2.17392E-07,-0.216743566,1.661956592,0.001001183,-0.000453966,0.092757796
name_1,A,7,-0.001154069,5.85735E-06,8.44094E-07,-0.050633252,2.674460735,0.001805834,-0.002893083,-0.294287561
name_1,A,8,0.000349981,7.72761E-06,4.7892E-07,-0.741639561,2.716841648,0.001245493,-0.001230792,0.089245077
name_1,A,9,0.000183908,5.60567E-06,3.21747E-07,-0.582854522,2.183820502,0.000821936,-0.001025807,0.046896422
name_1,A,10,-0.002298261,-4.1764E-06,1.21569E-06,1.203903188,4.811195147,0.002157364,-0.003767355,-0.58605652
name_1,A,11,0.000507291,9.37715E-06,1.11621E-06,-0.686295161,2.615532798,0.001848105,-0.001920538,0.129359272
name_1,A,12,0.00025908,4.57806E-06,5.44387E-07,-0.349417117,1.67928162,0.00127088,-0.001054291,0.066065503
name_1,A,13,0.000177119,-2.07328E-06,1.2206E-06,1.034785019,3.28192793,0.002828053,-0.001482977,0.045165264
name_1,A,14,0.001091143,5.23723E-06,1.02016E-06,-0.119592468,1.708333552,0.002601386,-0.000645622,0.278241586
name_1,A,15,-0.000310659,1.58387E-06,2.90163E-07,-0.475286782,3.199832667,0.001101341,-0.00159968,-0.079217985
name_1,B,1,-0.00046583,2.04587E-06,2.88882E-07,0.05412476,2.317415529,0.000567614,-0.001440573,-0.118786524
name_1,B,2,0.000179362,1.08339E-05,2.26681E-06,0.243450758,2.25655743,0.003079655,-0.002293111,0.045737207
name_1,B,3,-0.000783414,-5.68996E-07,4.78778E-07,-0.20954409,1.844263726,0.00021958,-0.001984762,-0.199770443
name_1,B,4,-0.00038839,4.19521E-06,6.55466E-07,-0.062002123,1.732793068,0.000982843,-0.001536312,-0.099039535
name_1,B,5,0.000499326,9.47488E-06,7.42923E-07,-0.062718851,1.25504388,0.001541522,-0.000743803,0.127328079
name_1,B,6,-0.000430002,-1.10438E-06,6.35882E-08,0.021077027,1.948571668,1.02956E-05,-0.000859549,-0.109650531
name_1,B,7,-0.000343688,3.92915E-06,3.78291E-07,-0.366843351,1.92464194,0.000613531,-0.001432309,-0.087640365
name_1,B,8,0.001094929,8.51601E-06,4.4947E-07,-0.071749075,1.482263212,0.001998495,-3.60518E-05,0.279206841
name_1,B,9,8.88154E-05,1.54512E-06,7.02615E-08,-0.408899448,2.504207293,0.000527419,-0.000446238,0.022647915
name_1,B,10,-0.00057558,3.35675E-06,3.96874E-07,-0.183029226,1.728934445,0.000425698,-0.001662693,-0.146772886
name_1,B,11,0.000439887,2.67926E-06,1.58822E-07,-0.473753889,1.995831821,0.001005896,-0.00034069,0.11217109
name_1,B,12,-0.000326082,2.11141E-07,1.95053E-07,-0.088118744,2.388309096,0.000498274,-0.001158177,-0.083151015
name_1,B,13,-0.000955983,1.39816E-07,4.27414E-07,0.061634501,1.767633708,0.000131201,-0.001935573,-0.243775784
name_1,B,14,-0.000118261,6.41922E-07,2.15759E-07,-0.161101016,2.623830101,0.000741912,-0.001039571,-0.030156476
name_1,B,15,-0.001204764,-5.14419E-06,2.59071E-07,0.904535249,3.078888832,0.00023821,-0.001824164,-0.307214708
name_1,C,1,-0.00046583,2.04587E-06,2.88882E-07,0.05412476,2.317415529,0.000567614,-0.001440573,-0.118786524
name_1,C,2,0.000179362,1.08339E-05,2.26681E-06,0.243450758,2.25655743,0.003079655,-0.002293111,0.045737207
name_1,C,3,-0.000783414,-5.68996E-07,4.78778E-07,-0.20954409,1.844263726,0.00021958,-0.001984762,-0.199770443
name_1,C,4,-0.00038839,4.19521E-06,6.55466E-07,-0.062002123,1.732793068,0.000982843,-0.001536312,-0.099039535
name_1,C,5,0.000499326,9.47488E-06,7.42923E-07,-0.062718851,1.25504388,0.001541522,-0.000743803,0.127328079
name_1,C,6,-0.000430002,-1.10438E-06,6.35882E-08,0.021077027,1.948571668,1.02956E-05,-0.000859549,-0.109650531
name_1,C,7,-0.000343688,3.92915E-06,3.78291E-07,-0.366843351,1.92464194,0.000613531,-0.001432309,-0.087640365
name_1,C,8,0.001094929,8.51601E-06,4.4947E-07,-0.071749075,1.482263212,0.001998495,-3.60518E-05,0.279206841
name_1,C,9,8.88154E-05,1.54512E-06,7.02615E-08,-0.408899448,2.504207293,0.000527419,-0.000446238,0.022647915
name_1,C,10,-0.00057558,3.35675E-06,3.96874E-07,-0.183029226,1.728934445,0.000425698,-0.001662693,-0.146772886
name_1,C,11,0.000439887,2.67926E-06,1.58822E-07,-0.473753889,1.995831821,0.001005896,-0.00034069,0.11217109
name_1,C,12,-0.000326082,2.11141E-07,1.95053E-07,-0.088118744,2.388309096,0.000498274,-0.001158177,-0.083151015
name_1,C,13,-0.000955983,1.39816E-07,4.27414E-07,0.061634501,1.767633708,0.000131201,-0.001935573,-0.243775784
name_1,C,14,-0.000118261,6.41922E-07,2.15759E-07,-0.161101016,2.623830101,0.000741912,-0.001039571,-0.030156476
name_1,C,15,-0.001204764,-5.14419E-06,2.59071E-07,0.904535249,3.078888832,0.00023821,-0.001824164,-0.307214708
name_2,A,1,0.000430448,-1.28999E-07,7.26822E-08,-0.38967859,1.808499247,0.000786166,-0.000110175,0.109764273
name_2,A,2,4.60931E-05,9.91185E-07,1.81012E-08,0.395929015,2.254770846,0.000311552,-0.000272446,0.011753732
name_2,A,3,0.000101131,4.51552E-06,1.6046E-07,-0.334068494,1.884734154,0.000635198,-0.00064302,0.025788299
name_2,A,4,0.000383603,2.74406E-06,6.81823E-08,0.117853521,1.642206356,0.000829525,-0.000115003,0.097818847
name_2,A,5,-0.000235849,2.17249E-06,6.4047E-08,-0.818924214,2.570332559,0.00014676,-0.000774659,-0.060141484
name_2,A,6,-4.26527E-05,1.62832E-06,6.0053E-08,-0.5137064,2.236242233,0.000322511,-0.000529573,-0.010876446
name_2,A,7,0.000212156,2.55181E-06,7.58507E-08,-0.075082535,1.575281447,0.000647764,-0.000222042,0.054099693
name_2,A,8,2.11207E-05,6.465E-07,1.13372E-08,-0.288897596,2.075220743,0.000193611,-0.000186039,0.005385777
name_2,A,9,0.000134068,3.04672E-06,8.02355E-08,-0.452049984,1.912745482,0.00053807,-0.000379125,0.034187306
name_2,A,10,-0.000176164,1.62006E-06,4.04526E-08,-0.19544754,1.702959259,0.000111595,-0.0005099,-0.0449218
name_2,A,11,-0.000106475,1.20399E-06,2.32727E-08,-0.879543743,2.418137563,7.65974E-05,-0.000421851,-0.027150998
name_2,A,12,7.09301E-05,2.0385E-06,3.88283E-08,-0.210322054,1.941459513,0.000396446,-0.000262884,0.018087172
name_2,A,13,-0.000103143,-2.84342E-07,1.76981E-08,-0.636430123,2.48164585,9.58687E-05,-0.000460223,-0.026301439
name_2,A,14,-0.000313676,-1.63514E-06,4.84309E-08,-0.517713342,2.399731246,9.52921E-05,-0.000799298,-0.079987427
name_2,A,15,-0.0001338,-1.12672E-06,1.93975E-08,-0.917233786,2.379735023,3.19829E-05,-0.000429205,-0.034119094
name_2,C,1,-0.001114295,-8.03605E-06,4.21009E-07,0.621427605,1.666552177,9.41981E-05,-0.001904394,-0.284145291
name_2,C,2,-0.000184264,-3.64125E-06,1.00256E-06,-0.166706875,2.734437821,0.001681832,-0.002168898,-0.046987412
name_2,C,3,0.001593029,6.59318E-06,3.60464E-06,-0.730613591,2.184421514,0.004068229,-0.002271941,0.406222429
name_2,C,4,-1.04977E-05,-2.85811E-06,3.00077E-07,0.329876474,2.842485856,0.001131461,-0.00100307,-0.002676925
name_2,C,5,0.000615411,1.61067E-06,4.087E-07,-0.491566091,2.182160527,0.001633324,-0.000655602,0.156929913
name_2,C,6,0.000539887,1.62302E-06,2.50364E-07,-0.394049184,1.917602389,0.00131845,-0.00039779,0.137671224
name_2,C,7,-0.000221572,-4.38095E-06,4.93102E-07,0.308897453,2.613077489,0.001185301,-0.001467119,-0.056500878
name_2,C,8,-0.000714979,-4.36899E-06,2.32507E-07,0.206827028,1.865416754,0.00029849,-0.001492442,-0.182319771
name_2,C,9,3.11434E-05,-3.73273E-07,1.05393E-07,0.17415349,2.633180128,0.000694406,-0.000569541,0.007941559
name_2,C,10,-0.0004421,-5.89578E-06,6.63669E-07,0.429614488,2.423330089,0.001163018,-0.001783512,-0.112735541
name_2,C,11,0.000186761,-1.70281E-06,1.78646E-07,0.218347703,2.350413376,0.001006217,-0.000558944,0.047624118
name_2,C,12,0.000638479,3.30334E-07,2.96148E-07,0.137342644,2.153397797,0.001687255,-0.000260722,0.162812228
name_2,C,13,0.00030377,-3.01015E-06,3.77545E-07,0.415355558,2.470365618,0.001543355,-0.000716019,0.077461406
name_2,C,14,-0.000239451,-5.88314E-06,3.448E-07,0.431191832,2.100622039,0.000903282,-0.00105443,-0.061060058
name_2,C,15,-0.000901896,-8.88731E-06,5.36319E-07,-0.047114795,1.91781247,0.00035183,-0.002164948,-0.229983475
name_2,B,1,-0.002990487,5.62323E-07,3.10837E-06,-0.49940595,2.671408946,0.00021058,-0.006732209,-0.762574185
name_2,B,2,-0.001100613,-3.70042E-06,3.99927E-07,0.030117506,1.945188103,4.31957E-05,-0.002082772,-0.280656207
name_2,B,3,4.53144E-05,7.08841E-06,6.47089E-07,-0.774111461,2.389865854,0.001072704,-0.00161836,0.011555163
name_2,B,4,-0.000557339,-2.31195E-07,8.82879E-08,-0.212730153,2.443545414,1.93108E-05,-0.001116491,-0.142121402
name_2,B,5,-0.000317348,2.41195E-06,1.91156E-07,-0.783440144,2.437009165,0.000242008,-0.001232425,-0.080923735
name_2,B,6,-0.000587316,-1.96953E-07,1.04787E-07,-0.075566705,2.21740903,9.94311E-05,-0.001175137,-0.149765544
name_2,B,7,-0.000642668,-1.3336E-06,4.66022E-08,1.876639467,6.942732587,0.000200196,-0.00091405,-0.16388046
name_2,B,8,-0.001938539,-1.05752E-05,7.58702E-07,1.141045083,3.113242413,1.72137E-05,-0.003029528,-0.494327538
name_2,B,9,-0.000963226,-3.25674E-06,1.55075E-07,1.352165522,3.790574336,4.67113E-05,-0.001430376,-0.245622554
name_2,B,10,-0.00084963,-3.86695E-06,1.46316E-07,0.187548613,3.400539554,0.000263387,-0.001539648,-0.216655664
name_2,B,11,-0.000629422,-1.96932E-06,6.80674E-08,0.891119147,3.470422085,6.46029E-05,-0.001042646,-0.160502666
name_2,B,12,-0.000695295,-6.47976E-07,8.87042E-08,0.587696206,3.115157044,0.000135306,-0.00114926,-0.17730022
name_2,B,13,-0.000953734,-3.07117E-06,1.15331E-07,1.258927878,5.835908257,0.000224691,-0.001584294,-0.243202188
name_2,B,14,-0.000912338,-6.5612E-06,2.63413E-07,-0.226501073,2.713026339,3.12842E-05,-0.00191692,-0.232646264
name_2,B,15,-0.002459621,-1.50554E-05,1.38956E-06,0.840333305,2.617846369,0.000134471,-0.004121206,-0.627203249
name_3,B,1,-0.004013666,9.73193E-06,5.26256E-06,-0.258240668,2.373756174,0.000900174,-0.00854538,-1.023484742
name_3,B,2,-0.001230996,1.8065E-05,4.28226E-06,-0.623943537,2.616957655,0.00228268,-0.005708215,-0.313903951
name_3,B,3,-0.004041593,-9.99617E-06,2.2633E-06,1.390888453,4.506237522,0.000777221,-0.005861883,-1.030606279
name_3,B,4,-0.003325526,-1.04244E-05,1.35049E-06,1.717846776,5.387626904,0.000514,-0.004382172,-0.848009015
name_3,B,5,1.7501E-05,1.32246E-05,1.35225E-06,-0.010582261,2.288988587,0.002321541,-0.002073188,0.004462756
name_3,B,6,-0.000929836,5.38315E-06,5.79532E-07,-0.416282963,2.485325898,0.000471008,-0.002499575,-0.237108063
name_3,B,7,-0.001539529,6.64796E-06,1.10966E-06,-0.15038575,2.485178145,0.000852744,-0.003626457,-0.392579809
name_3,B,8,-0.000817616,9.15283E-07,1.45737E-07,0.034926885,3.377569183,0.000185077,-0.001599869,-0.208492119
name_3,B,9,-0.001224941,1.62336E-06,3.6895E-07,0.067314704,2.650978923,0.00018077,-0.00238354,-0.312359911
name_3,B,10,-0.002139046,-1.44757E-06,6.7082E-07,1.026311915,4.542690878,0.000583295,-0.003437133,-0.545456789
name_3,B,11,-0.000334372,1.15466E-05,1.22072E-06,-0.26087815,2.526058676,0.001851356,-0.002492189,-0.085264895
name_3,B,12,-0.003509536,-1.19501E-05,1.81387E-06,1.294282197,3.912670187,0.000399074,-0.005051476,-0.894931698
name_3,B,13,-0.002806849,-4.62868E-06,9.38933E-07,1.649615476,6.030080885,0.000676653,-0.004024795,-0.715746578
name_3,B,14,-0.002081899,-1.18297E-07,6.58354E-07,0.882294248,4.549235894,0.00071217,-0.003362803,-0.530884261
name_3,B,15,-0.006438098,-2.87671E-05,6.23199E-06,1.422723529,4.094544972,0.000185245,-0.008769739,-1.641714928
name_3,A,1,0.001456894,2.40652E-05,8.6057E-06,0.74152514,2.158418049,0.008578089,-0.001970473,0.371508011
name_3,A,2,0.001760093,2.03711E-05,6.12598E-06,0.725402761,2.102930661,0.006728511,-0.001284195,0.448823839
name_3,A,3,-0.000427309,-3.12845E-06,1.7368E-06,-0.27528562,1.756599899,0.001709588,-0.002606309,-0.10896375
name_3,A,4,-0.000228397,-6.19189E-06,1.02461E-06,0.119691894,1.744371994,0.001488314,-0.001721695,-0.058241278
name_3,A,5,0.001028404,7.63957E-06,1.00189E-06,0.625989963,2.284010427,0.003123358,-0.000384235,0.262243025
name_3,A,6,-0.000212475,6.83807E-06,8.09303E-07,0.447731506,1.849632473,0.001498929,-0.001419498,-0.054181073
name_3,A,7,0.000507503,1.69474E-05,2.72823E-06,0.201471899,1.578149814,0.00316247,-0.001537537,0.129413253
name_3,A,8,0.000118189,2.82137E-06,3.53433E-07,1.095075058,2.961289194,0.001495346,-0.000551465,0.030138071
name_3,A,9,9.40201E-05,5.05044E-06,7.08093E-07,0.818962716,2.443434951,0.001938414,-0.000952943,0.023975137
name_3,A,10,0.000591852,1.15787E-05,1.48993E-06,0.338166586,1.662258468,0.002764432,-0.000858626,0.150922348
name_3,A,11,0.000810682,1.59709E-05,2.37326E-06,0.162297918,1.541362317,0.003360103,-0.001171274,0.206723842
name_3,A,12,-0.000231252,5.4602E-06,1.46045E-06,-0.110465576,2.265425053,0.00189598,-0.002493871,-0.058969345
name_3,A,13,0.000574239,9.66135E-06,1.3784E-06,0.337430078,1.99682727,0.00280149,-0.001283181,0.146430862
name_3,A,14,4.85054E-05,4.43146E-06,6.91947E-07,-0.248561619,2.401157889,0.001450598,-0.001606446,0.012368876
name_3,A,15,0.000566895,-2.05925E-06,2.04473E-06,0.032678821,2.431540459,0.003199517,-0.002737788,0.144558287
name_3,C,1,0.000810029,-5.25885E-06,1.51465E-05,0.452286509,2.115036355,0.008337443,-0.005045408,0.206557378
name_3,C,2,0.004636757,2.5601E-05,1.8015E-05,-0.942620225,3.069746833,0.010779545,-0.005160138,1.182372978
name_3,C,3,-0.000156166,1.8459E-06,1.5438E-06,-0.230354799,2.51612945,0.002114491,-0.002832015,-0.039822345
name_3,C,4,-0.000657856,-7.49665E-06,1.12977E-06,1.118366051,3.033197989,0.001887526,-0.001686166,-0.167753287
name_3,C,5,0.000593447,3.95857E-06,1.67462E-06,-0.571809071,3.141577562,0.00289375,-0.002418915,0.151328881
name_3,C,6,-0.000146873,9.90223E-06,1.0204E-06,-0.896567149,2.810588832,0.001214016,-0.002436831,-0.037452495
name_3,C,7,0.002214109,2.56716E-05,4.55114E-06,-0.743960702,2.139073202,0.004450672,-0.002022898,0.564597901
name_3,C,8,-0.000393726,1.10525E-06,2.63578E-07,-0.447476905,2.385675143,0.00066668,-0.001506626,-0.100400057
name_3,C,9,-0.000309699,7.35728E-06,7.2054E-07,-1.273811318,3.536203505,0.001155237,-0.002422826,-0.078973158
name_3,C,10,0.001369895,1.62973E-05,1.93156E-06,-0.967975501,2.660499213,0.002943964,-0.001682727,0.349323349
name_3,C,11,0.000684898,1.41887E-05,1.761E-06,-1.205959646,3.132483334,0.002054751,-0.002430472,0.174649056
name_3,C,12,0.000156733,9.35145E-06,9.85037E-07,-1.17412887,3.287404796,0.00133649,-0.002284795,0.03996704
name_3,C,13,0.000167124,7.73247E-06,8.99028E-07,-1.327548241,3.68711052,0.001336331,-0.002257566,0.042616626
name_3,C,14,0.000684682,4.63734E-06,7.41088E-07,-0.907203618,3.505707479,0.002108413,-0.00140554,0.174593814
name_3,C,15,-0.009980868,-4.2289E-05,1.54004E-05,1.23850989,3.995900187,0.000955655,-0.015358376,-2.545121278
name_4,B,1,-0.001967499,-1.61755E-05,1.46769E-06,-0.19014964,1.769423771,0.000268405,-0.004212545,-0.501712177
name_4,B,2,0.001380648,8.18591E-06,5.76528E-07,-0.537943529,1.855231114,0.002345576,-0.000358778,0.35206535
name_4,B,3,0.002084898,1.02645E-05,1.17818E-06,-0.622095841,2.271167058,0.003614681,-0.000920413,0.531648887
name_4,B,4,0.000401149,2.73174E-07,2.56251E-07,1.121851556,3.00945272,0.001567361,-0.000238979,0.102292949
name_4,B,5,0.000536428,2.19898E-06,1.83615E-07,0.445014086,2.015299274,0.001345473,-8.37069E-05,0.13678915
name_4,B,6,7.78152E-05,-8.3499E-07,8.24312E-08,0.730853375,2.140359966,0.000640319,-0.000250435,0.019842865
name_4,B,7,8.54422E-05,-7.59572E-07,1.264E-07,0.960743319,2.753775561,0.000864682,-0.000371551,0.021787769
name_4,B,8,9.77828E-05,-5.07694E-07,5.78789E-08,1.076183754,2.67965889,0.000623123,-0.00013865,0.024934612
name_4,B,9,-0.000314555,-1.73824E-06,6.00903E-08,0.472162176,1.693418494,0.000128495,-0.000607018,-0.080211441
name_4,B,10,4.73852E-05,-1.38985E-06,8.18832E-08,0.385609004,2.358363469,0.000597151,-0.000414985,0.012083227
name_4,B,11,0.000132886,6.29365E-07,9.88627E-08,0.315647514,2.263136062,0.000718796,-0.000403584,0.033886032
name_4,B,12,0.000197788,-5.86647E-07,1.34448E-07,0.749673606,2.044719341,0.000901248,-0.000270203,0.050435948
name_4,B,13,-5.48695E-05,-3.30557E-07,8.01363E-08,0.499229595,2.295117761,0.000515038,-0.000461587,-0.013991719
name_4,B,14,-0.000155181,2.04602E-07,1.03596E-07,-0.315576734,1.639483855,0.000294608,-0.000701561,-0.03957118
name_4,B,15,-0.003381198,-1.66624E-05,1.87411E-06,1.049637388,3.787998599,0.001236982,-0.005141872,-0.862205453
name_4,C,1,-0.003274064,-1.98196E-05,2.34468E-06,0.415540452,2.589335609,0.000330002,-0.005396699,-0.834886414
name_4,C,2,-0.002708255,-1.2581E-05,1.40599E-06,0.623302829,2.824345854,0.000342299,-0.004362967,-0.690605028
name_4,C,3,-0.002158406,-1.20686E-05,1.36277E-06,0.533443097,2.003273312,0.000123115,-0.003541271,-0.550393468
name_4,C,4,-0.001359615,-2.79588E-06,1.21801E-06,0.153501383,1.782158114,0.000501057,-0.003170609,-0.346701898
name_4,C,5,-0.001137442,-1.37625E-06,1.35821E-06,0.317498356,1.906125207,0.001003064,-0.00287873,-0.290047833
name_4,C,6,-0.001349153,-7.68226E-06,7.16814E-07,0.172589859,1.621475271,6.63286E-05,-0.002555934,-0.344033909
name_4,C,7,-0.001476571,-3.93483E-06,1.18496E-06,0.263369724,1.652301644,0.000319395,-0.002913359,-0.376525592
name_4,C,8,-0.001353983,-7.16605E-06,5.17917E-07,0.192004336,1.996677897,3.62183E-05,-0.002450195,-0.345265541
name_4,C,9,-0.001338062,-5.50039E-06,6.72103E-07,0.231880615,1.642384571,4.47145E-05,-0.002533131,-0.341205895
name_4,C,10,-0.00143934,-5.26846E-06,7.60838E-07,0.274863827,1.757888982,0.000198294,-0.002753007,-0.367031645
name_4,C,11,-0.001364049,-4.57605E-06,6.95412E-07,0.344424899,1.733203282,0.00015825,-0.002547885,-0.347832542
name_4,C,12,-0.001215735,-3.84349E-06,6.09296E-07,0.243207376,1.678222716,6.83549E-05,-0.002422577,-0.31001234
name_4,C,13,-0.001486542,-3.4203E-06,1.01075E-06,0.267339641,1.701745417,0.000148659,-0.002968566,-0.379068125
name_4,C,14,-0.002410729,-7.4971E-06,9.36422E-07,0.986337354,3.46700224,0.000376946,-0.003638019,-0.614735891
name_4,C,15,-0.005976317,-2.37905E-05,4.50159E-06,1.52643207,5.430302125,0.001297233,-0.008494604,-1.523960831
name_4,A,1,-0.00353971,-2.36042E-05,3.19668E-06,0.222044159,2.282562054,0.000709635,-0.006206344,-0.902626126
name_4,A,2,-0.000552874,-9.34029E-06,6.58421E-07,-0.915038046,2.190987095,0.000253077,-0.002073858,-0.140982822
name_4,A,3,0.000898371,1.43785E-06,2.6659E-07,0.200914306,2.268386493,0.001861582,-7.1014E-05,0.229084502
name_4,A,4,0.001288502,1.96771E-06,6.07937E-07,0.159028299,1.870237967,0.002532092,-0.000316524,0.32856811
name_4,A,5,0.001839234,4.02235E-06,7.24664E-07,-0.318647884,2.587639242,0.00303114,-0.000462926,0.46900465
name_4,A,6,0.000701658,1.07755E-06,2.36322E-07,0.207900889,1.747933377,0.001498289,-4.44504E-05,0.178922751
name_4,A,7,0.001348251,3.77892E-06,6.10282E-07,0.112115796,1.778913657,0.002507567,-0.000302668,0.343803944
name_4,A,8,0.000796013,1.97664E-06,1.88059E-07,-0.070287367,1.914786626,0.001439771,-0.000130978,0.202983412
name_4,A,9,0.000839175,2.95232E-06,4.18846E-07,0.232350718,1.575325202,0.001880287,-3.8306E-05,0.213989539
name_4,A,10,0.001135363,2.59341E-06,3.73292E-07,0.054359715,2.030466964,0.002079457,-0.000209697,0.289517471
name_4,A,11,0.001250407,4.82015E-07,4.87706E-07,-0.347937902,1.942788115,0.002167184,-0.000301846,0.318853831
name_4,A,12,0.001969191,7.67477E-06,8.2107E-07,-0.493926839,2.747893161,0.003315971,-0.000133219,0.502143798
name_4,A,13,0.000703499,-8.22044E-07,4.00346E-07,-0.109128733,1.961893012,0.001660668,-0.000384704,0.179392196
name_4,A,14,3.39615E-05,-4.2573E-06,3.41259E-07,-0.978320174,2.866038682,0.000761018,-0.001205464,0.00866018
name_4,A,15,-0.002405396,-1.80212E-05,2.52022E-06,-0.731645402,2.562326887,0.00041221,-0.005471335,-0.613376023
name_5,C,1,0.000270096,5.21671E-06,2.29752E-07,0.397148446,2.216270408,0.001214386,-0.000459242,0.068874469
name_5,C,2,0.000578712,7.43092E-06,4.4372E-07,0.541722546,2.208318264,0.001917642,-0.000360366,0.147571522
name_5,C,3,-0.000993025,-1.0468E-07,3.51691E-07,-0.335240827,2.3960709,0.000315684,-0.002166933,-0.253221461
name_5,C,4,-4.84554E-06,3.61705E-06,1.47422E-07,0.628319153,2.444736095,0.00082515,-0.000529045,-0.001235613
name_5,C,5,0.00068167,6.48471E-06,3.88233E-07,0.064334605,2.243464934,0.001848819,-0.000398624,0.173825846
name_5,C,6,-0.000987309,-1.10756E-06,4.04839E-07,-0.293638269,2.208240714,0.000353165,-0.002233592,-0.251763859
name_5,C,7,-0.000904211,2.00855E-06,3.35872E-07,0.247637739,2.147732724,0.000271122,-0.001831909,-0.230573743
name_5,C,8,-0.00031835,1.82319E-06,2.12913E-07,-0.373217157,2.493574578,0.000519712,-0.001240076,-0.081179302
name_5,C,9,-0.000319499,4.72842E-06,4.01673E-07,0.04100747,2.529803371,0.000993245,-0.001467305,-0.081472278
name_5,C,10,-0.000411209,4.40399E-06,3.45398E-07,0.438660449,2.720958967,0.00087543,-0.001347959,-0.104858312
name_5,C,11,-0.000198201,5.17474E-06,4.19343E-07,0.382965867,3.03218424,0.001311264,-0.001298425,-0.050541231
name_5,C,12,6.09737E-05,6.03065E-06,4.07038E-07,0.387514197,2.897127731,0.001580054,-0.000996165,0.015548292
name_5,C,13,0.001221093,1.10152E-05,8.07371E-07,0.459054052,2.119485906,0.00300702,-9.75313E-05,0.311378672
name_5,C,14,0.000674695,6.20462E-06,2.85005E-07,0.717123799,2.671589512,0.001874687,-4.93502E-05,0.172047207
name_5,C,15,0.000893871,6.14527E-06,2.62828E-07,0.135582213,2.057149727,0.001851017,-0.000119773,0.227937208
name_5,A,1,-0.000256499,-3.9572E-06,1.36256E-07,0.048029146,1.837672979,0.000361192,-0.000870934,-0.065407298
name_5,A,2,-0.001047759,-7.72933E-06,4.41957E-07,0.071911031,1.657329246,0.0002394,-0.002119472,-0.267178574
name_5,A,3,-0.00197937,-2.27656E-05,2.92346E-06,-0.298130506,1.582361261,0.000120663,-0.00469502,-0.504739244
name_5,A,4,-0.000922355,-5.39426E-06,3.09918E-07,0.11970073,1.719225454,0.000239918,-0.001772458,-0.235200507
name_5,A,5,-0.000682404,-1.49367E-05,1.38049E-06,-0.159354618,1.665422451,0.000994932,-0.002529534,-0.174012936
name_5,A,6,-0.002585285,-2.59463E-05,3.74544E-06,-0.253986977,1.606399844,0.000102731,-0.00584617,-0.659247708
name_5,A,7,-0.001854833,-1.44266E-05,1.19622E-06,0.366134913,1.737077492,6.58882E-05,-0.003340643,-0.472982512
name_5,A,8,-0.001199018,-1.52359E-05,1.31559E-06,-0.080330283,1.5120051,0.000373163,-0.002922851,-0.305749673
name_5,A,9,-0.002252025,-1.8504E-05,1.94744E-06,-0.137231447,1.728522833,0.000153031,-0.004588059,-0.574266411
name_5,A,10,-0.001453896,-1.3609E-05,1.03588E-06,0.057510218,1.493464486,0.000194111,-0.002880048,-0.370743477
name_5,A,11,-0.001517723,-1.44209E-05,1.19293E-06,-0.246506459,1.580825413,0.0002486,-0.003237786,-0.387019379
name_5,A,12,-0.001121594,-8.9598E-06,4.97426E-07,-0.290617048,1.911165778,0.000225057,-0.002277901,-0.286006533
name_5,A,13,-0.000936766,-5.67283E-06,5.82495E-07,-0.15308535,1.907720191,0.000446981,-0.002320474,-0.238875454
name_5,A,14,-0.000540141,-3.03791E-06,1.59473E-07,-0.128500752,2.012810208,0.000298778,-0.001271824,-0.137736009
name_5,A,15,-0.001105676,-6.07805E-06,6.02491E-07,-0.114279098,2.010927627,0.000492639,-0.002519264,-0.281947487
name_5,B,1,-0.000144886,3.50735E-08,8.25212E-08,-0.474245142,2.436865119,0.000317763,-0.000731495,-0.03694593
name_5,B,2,-0.000674962,-1.91042E-06,3.18065E-07,0.108336275,1.949795517,0.000262619,-0.001633652,-0.172115207
name_5,B,3,-0.000914775,-7.52846E-06,4.96312E-07,0.054044232,1.584090201,0.000180393,-0.001945764,-0.233267574
name_5,B,4,-0.000579838,-1.26179E-06,2.22499E-07,-0.221865404,1.854394689,0.000174494,-0.001403925,-0.147858607
name_5,B,5,-0.000304344,-3.11536E-06,1.11281E-07,-0.276708189,1.822213287,0.000173888,-0.000902008,-0.077607704
name_5,B,6,-0.000890955,-7.53889E-06,4.96761E-07,-0.150664355,1.546310397,3.41048E-05,-0.00195312,-0.227193538
name_5,B,7,-0.000428196,-2.45407E-06,1.82782E-07,0.638544881,2.601503343,0.000484919,-0.00109496,-0.109189898
name_5,B,8,4.93231E-05,-4.63699E-06,2.69791E-07,-0.47286628,1.776768063,0.000763791,-0.000861936,0.012577379
name_5,B,9,-0.001660421,-1.06744E-05,9.96719E-07,0.418755626,1.95844645,0.000157779,-0.003026349,-0.42340738
name_5,B,10,-0.000304124,-1.52062E-06,1.08096E-07,-0.021395209,1.733130412,0.000212556,-0.000875245,-0.077551588
name_5,B,11,-0.000199384,7.67615E-07,1.9639E-07,-0.008579213,2.303456862,0.000619207,-0.001023254,-0.050842803
name_5,B,12,6.47633E-05,3.61379E-06,2.52826E-07,-0.244824564,2.181452759,0.000839417,-0.000883526,0.016514644
name_5,B,13,-0.000102383,3.07198E-06,3.4948E-07,-0.064323592,2.646029629,0.001242231,-0.001151445,-0.026107692
name_5,B,14,1.6917E-05,4.3056E-06,2.31445E-07,0.100463595,2.287098536,0.0010783,-0.000769012,0.004313828
name_5,B,15,-0.000635078,-9.59912E-08,3.31695E-07,-0.64529576,2.118195938,0.000346691,-0.001729636,-0.161944943
name_6,C,1,1.43241E-05,3.787E-08,7.6507E-09,-0.042311209,2.619172424,0.000187298,-0.000165025,0.003652645
name_6,C,2,-0.000833176,-2.34052E-06,9.22185E-08,1.405170544,4.90078161,0.000177191,-0.001183464,-0.212459914
name_6,C,3,0.000439923,6.24534E-06,4.09144E-07,0.843898999,2.691516576,0.002077508,-0.000260126,0.112180414
name_6,C,4,-0.000342748,-7.67424E-07,4.24784E-08,0.557656756,2.125101882,0.000136544,-0.000627453,-0.08740064
name_6,C,5,0.000517776,6.05179E-06,3.63468E-07,0.042117298,1.628530983,0.001558499,-0.000375109,0.132032939
name_6,C,6,0.00084164,1.12861E-05,1.01303E-06,0.109974119,1.683391372,0.002659484,-0.000554458,0.21461826
name_6,C,7,0.000109537,2.07908E-06,5.11762E-08,-0.318769681,1.862664375,0.000461254,-0.000283069,0.027931899
name_6,C,8,-0.00010038,2.00069E-06,1.42096E-07,-0.165334992,2.289959443,0.000551286,-0.000821724,-0.025596873
name_6,C,9,0.00068032,9.13205E-06,5.93787E-07,-0.144320402,1.682510298,0.001989513,-0.000465686,0.17348166
name_6,C,10,-0.000564063,-1.89654E-06,6.28133E-08,0.241717069,3.792680018,0.000233482,-0.001049496,-0.143836091
name_6,C,11,0.000321818,5.82401E-06,2.68494E-07,-0.234042239,1.489949546,0.001105063,-0.000436911,0.082063656
name_6,C,12,0.000802094,8.42055E-06,6.29873E-07,0.20281968,1.532572713,0.002103111,-0.000216452,0.204534013
name_6,C,13,0.000270601,2.77594E-06,1.73671E-07,-0.173466759,2.450725095,0.001024876,-0.00056532,0.06900317
name_6,C,14,-3.514E-05,3.73675E-06,2.05863E-07,0.142289604,1.933508179,0.000849507,-0.000779629,-0.008960711
name_6,C,15,-0.000526498,-1.48934E-06,4.10072E-08,1.24215529,4.337950633,0.00016057,-0.000782053,-0.134256961
name_6,B,1,-0.000546851,-3.0439E-06,1.18584E-07,0.858718817,2.490354705,0.000160026,-0.000982781,-0.139447101
name_6,B,2,0.000938185,1.37384E-05,1.40406E-06,0.270761448,1.847687019,0.003696946,-0.000515962,0.239237228
name_6,B,3,0.000593468,5.46753E-06,1.15334E-06,0.902679615,2.402203711,0.002857423,-0.000418575,0.151334231
name_6,B,4,-8.91082E-05,2.22813E-06,7.83759E-08,-0.097624926,1.793653497,0.000353271,-0.000561821,-0.022722586
name_6,B,5,0.000896284,6.86646E-06,9.01028E-07,0.659222559,2.079473812,0.002735411,-0.000161035,0.228552302
name_6,B,6,0.001107512,1.04697E-05,1.56281E-06,0.632464649,2.061998919,0.003556524,-0.000222201,0.282415492
name_6,B,7,-0.000722139,-4.57431E-06,1.56297E-07,0.069557037,1.939658222,0.000209413,-0.001309182,-0.184145484
name_6,B,8,-0.000756613,-4.08861E-06,2.2993E-07,-0.306291795,2.237040538,0.00020842,-0.001685049,-0.192936441
name_6,B,9,0.001283405,1.25823E-05,1.26188E-06,-0.006817353,1.551172884,0.003047692,-0.000271791,0.327268273
name_6,B,10,-0.001062886,-6.76993E-06,2.67262E-07,0.45200351,2.531640421,0.000178287,-0.001848923,-0.271035805
name_6,B,11,-0.000139897,2.01165E-06,1.94997E-07,0.486972026,2.025704988,0.000716529,-0.000717363,-0.035673809
name_6,B,12,0.000321615,8.00706E-06,1.3968E-06,0.638710049,2.204910662,0.002712281,-0.001134653,0.082011867
name_6,B,13,-0.00067914,9.28744E-08,6.54221E-08,1.571974864,6.616820011,0.000395883,-0.001003448,-0.173180684
name_6,B,14,7.93338E-05,7.65542E-06,1.18002E-06,0.525416389,2.156388431,0.002219594,-0.00126776,0.020230116
name_6,B,15,0.000235129,4.13558E-09,3.45328E-08,0.093334237,1.553980417,0.000522711,-3.8981E-05,0.059957878
name_6,A,1,9.94963E-05,-3.71996E-07,7.18561E-08,0.144626556,1.888175643,0.000584625,-0.000297395,0.025371561
name_6,A,2,0.002913245,1.93784E-05,3.2211E-06,-0.792815948,2.128652473,0.00503535,-0.000443287,0.742877352
name_6,A,3,0.001604865,1.33043E-05,1.92446E-06,-0.060015028,1.582325127,0.003645124,-0.000433042,0.409240561
name_6,A,4,-0.000317318,1.73714E-06,1.04483E-07,0.364838516,2.095996254,0.000375683,-0.00077379,-0.080916069
name_6,A,5,0.000953897,1.39008E-05,1.60384E-06,-0.114767898,1.708376224,0.003075234,-0.000979347,0.243243773
name_6,A,6,0.000769581,1.44932E-05,2.18774E-06,0.063691273,1.947481339,0.003691504,-0.001624434,0.196243039
name_6,A,7,-0.000406966,5.37229E-06,4.45388E-07,1.009898999,3.109109706,0.001189527,-0.001233231,-0.103776282
name_6,A,8,-0.000613024,1.26995E-06,4.65384E-07,0.298130585,2.203507139,0.001037375,-0.001640446,-0.156321211
name_6,A,9,0.001231174,1.46918E-05,1.67554E-06,-0.078400701,1.614971876,0.003365248,-0.000688389,0.31394937
name_6,A,10,-0.001357323,-2.10678E-06,3.42503E-07,1.024544805,2.91675333,4.99847E-05,-0.001999852,-0.346117271
name_6,A,11,-0.000224004,6.22428E-06,5.80208E-07,1.163007426,3.799832998,0.00180921,-0.001157375,-0.057121116
name_6,A,12,0.000365616,9.05659E-06,1.0261E-06,0.62034903,2.410134566,0.002634495,-0.001000243,0.093232179
name_6,A,13,-0.000876149,-3.67574E-06,1.42306E-07,1.173207917,3.268195038,4.47921E-05,-0.001313872,-0.22341808
name_6,A,14,0.000274151,4.53381E-06,3.59612E-07,0.019003574,2.029412714,0.00124356,-0.000795284,0.069908583
name_6,A,15,-0.000155472,3.92619E-06,1.64258E-07,0.526957797,2.593531838,0.000747578,-0.000735234,-0.039645258
name_8,A,1,-5.61134E-05,1.62127E-08,1.33924E-07,0.46456341,2.569604686,0.000701787,-0.00068056,-0.014308919
name_8,A,2,0.000463821,7.55982E-06,1.7066E-06,0.059044043,2.267119324,0.002817636,-0.001809899,0.11827431
name_8,A,3,0.00093819,1.14159E-05,1.88453E-06,-0.277124369,1.817647244,0.002985714,-0.001417043,0.239238446
name_8,A,4,-0.000152133,4.14214E-06,3.83564E-07,-0.872525854,2.570705347,0.000644766,-0.00147172,-0.038793841
name_8,A,5,0.001146567,1.69283E-05,2.71041E-06,-0.386133746,1.5664583,0.003284817,-0.001565354,0.292374529
name_8,A,6,0.000495636,8.06999E-06,6.44512E-07,-0.732197193,2.069842338,0.001369689,-0.001119422,0.126387273
name_8,A,7,-0.000301345,5.13508E-06,6.35286E-07,-0.979237133,2.661767327,0.000599718,-0.002040117,-0.076843097
name_8,A,8,0.000181205,1.10198E-05,9.92245E-07,-0.356524913,1.593158536,0.001466511,-0.001445147,0.046207182
name_8,A,9,0.000357868,7.79764E-06,4.03909E-07,-0.160505782,1.660542241,0.001318722,-0.000635396,0.091256429
name_8,A,10,-0.000500326,9.66185E-06,1.22425E-06,-0.292129941,1.941389257,0.001152729,-0.00242743,-0.127583218
name_8,A,11,7.49685E-05,1.33992E-05,1.41919E-06,0.014817582,1.838099582,0.00193176,-0.001775265,0.019116965
name_8,A,12,0.000228662,8.40324E-06,5.19948E-07,0.696933516,2.930832537,0.001795494,-0.000899473,0.058308935
name_8,A,13,-0.000203439,1.22086E-05,1.47625E-06,-0.160705226,1.817496456,0.001587698,-0.002212073,-0.051876944
name_8,A,14,0.00073611,1.86615E-05,2.26113E-06,0.272821165,1.772153227,0.003144058,-0.001377774,0.18770817
name_8,A,15,0.000168416,9.55882E-06,6.93339E-07,-0.028906244,1.788070562,0.001450869,-0.00115127,0.042945981
name_8,C,1,0.000394115,-1.11633E-05,1.3713E-06,-0.312196456,1.423240002,0.001763154,-0.001486732,0.100499434
name_8,C,2,0.001409969,-2.61846E-05,7.09829E-06,-0.26231251,1.363649419,0.00453912,-0.002845001,0.359542145
name_8,C,3,-0.001745143,-3.27802E-05,6.5196E-06,0.107519168,1.593554167,0.002345484,-0.005560644,-0.445011419
name_8,C,4,0.00221013,7.0115E-08,1.18708E-06,0.0072486,2.909088746,0.004228735,-0.000800352,0.563583195
name_8,C,5,9.96859E-05,-2.26109E-05,3.78277E-06,-0.009270495,1.646289729,0.003311899,-0.002936181,0.025419916
name_8,C,6,-0.000707388,-1.66341E-05,1.73964E-06,-0.33175434,1.817486565,0.001216295,-0.003168419,-0.180383861
name_8,C,7,0.00181875,-1.95765E-06,1.02441E-06,0.01128579,2.378814279,0.003652763,-0.000739182,0.463781132
name_8,C,8,0.000656599,-9.11865E-06,9.28143E-07,-0.431734757,1.580223982,0.001805598,-0.001174234,0.167432842
name_8,C,9,0.000222975,-4.28508E-06,1.80648E-07,-0.345039821,1.553215293,0.000726947,-0.000524112,0.056858611
name_8,C,10,0.001380144,1.65089E-06,5.74012E-07,0.437148552,2.767701456,0.0028845,-0.000447969,0.351936686
name_8,C,11,0.001203414,8.10267E-08,3.2787E-07,-0.175422182,2.972819386,0.002200037,-0.000441916,0.306870546
name_8,C,12,-0.000239934,-1.07459E-05,8.36048E-07,-0.590543387,1.753989642,0.000741337,-0.001953218,-0.06118317
name_8,C,13,0.001479022,5.51319E-06,6.69083E-07,0.340865494,2.56229141,0.003056203,-0.000399939,0.377150664
name_8,C,14,0.001649295,-4.9472E-06,1.27142E-06,-0.098862103,1.841821994,0.003465305,-0.000570848,0.420570185
name_8,C,15,0.00036389,-2.2254E-06,2.61917E-07,0.487039103,2.22447653,0.001374176,-0.000473777,0.0927919
name_8,B,1,0.00418582,5.59334E-06,2.58503E-06,-1.09008329,4.205541962,0.006294668,-0.00079198,1.067384112
name_8,B,2,0.008232753,1.00754E-05,1.20594E-05,-0.758488404,3.225785472,0.012938532,-0.000936917,2.099351961
name_8,B,3,0.003463624,-1.44403E-05,6.18835E-06,0.260846395,1.646002417,0.007425248,-0.000829668,0.883224221
name_8,B,4,0.006071923,1.56721E-05,5.3471E-06,-1.399379491,4.309838325,0.008619681,-0.000790383,1.548340447
name_8,B,5,0.005725598,-7.7237E-07,6.82287E-06,-0.381636336,2.613122396,0.009496584,-0.000969999,1.460027584
name_8,B,6,0.002944538,-1.59347E-06,1.60732E-06,-0.657065499,3.185414957,0.004711465,-0.00091609,0.750857063
name_8,B,7,0.006365318,1.37532E-05,6.16782E-06,-1.186191945,4.019792918,0.009417842,-0.000864635,1.623156053
name_8,B,8,0.004584245,7.42217E-06,3.11304E-06,-1.195360389,4.1073088,0.006647647,-0.000684045,1.168982373
name_8,B,9,0.002497974,3.92097E-06,6.17349E-07,-2.419427337,9.025542861,0.003300162,-0.000839157,0.636983276
name_8,B,10,0.005129255,1.89722E-05,4.28516E-06,-1.381221781,3.702855728,0.007079888,-0.000459028,1.30795997
name_8,B,11,0.004124399,1.32729E-05,2.15321E-06,-1.80274314,5.32454899,0.005416189,-0.000743022,1.051721636
name_8,B,12,0.003056273,6.2205E-06,1.03106E-06,-2.022042969,6.911427616,0.004112123,-0.000755438,0.779349536
name_8,B,13,0.00404488,1.41928E-05,2.47592E-06,-1.432542906,4.026702265,0.005561127,-0.000483439,1.031444395
name_8,B,14,0.004199127,1.24932E-05,2.41245E-06,-1.598376664,4.718404737,0.005826633,-0.000559468,1.070777311
name_8,B,15,0.002131387,3.68829E-06,6.34302E-07,-1.203387251,4.637829819,0.003221137,-0.000421835,0.543503787
name_7,A,1,-0.001129069,-4.19284E-06,2.31668E-07,0.605261732,3.251655154,0.000177261,-0.001911816,-0.287912505
name_7,A,2,-0.001330123,-3.42346E-06,2.26091E-07,1.413142803,5.374555247,0.000293089,-0.001995614,-0.339181474
name_7,A,3,9.52217E-06,2.02061E-06,1.06153E-07,-0.507031554,2.544172206,0.00051413,-0.000688547,0.002428152
name_7,A,4,-8.20061E-05,2.04606E-06,1.84666E-07,0.167822016,2.328421697,0.000745885,-0.00083388,-0.02091156
name_7,A,5,-0.000101118,2.86366E-06,3.8248E-07,0.027674013,2.31845245,0.001068723,-0.001246848,-0.025785103
name_7,A,6,0.000183881,3.07224E-06,1.62453E-07,-0.431239651,2.349172948,0.000817898,-0.000632348,0.046889742
name_7,A,7,0.000379958,5.07324E-06,3.43936E-07,-0.14078567,2.443806127,0.001427026,-0.000729965,0.096889213
name_7,A,8,6.38895E-06,7.30955E-07,6.99286E-08,-0.252756621,2.15555059,0.00044468,-0.000514076,0.001629182
name_7,A,9,0.000444292,3.71417E-06,1.26537E-07,-0.790479657,2.169072456,0.000859316,-0.000246678,0.113294421
name_7,A,10,0.000407321,1.54999E-06,1.65452E-07,-0.526039867,2.695322424,0.0010729,-0.000478548,0.103866882
name_7,A,11,0.00032151,1.01056E-06,1.53754E-07,0.025333382,2.345991277,0.001046139,-0.000415989,0.081985177
name_7,A,12,0.000229787,3.87425E-06,1.76057E-07,-0.724536116,2.443444113,0.000784319,-0.000646123,0.058595745
name_7,A,13,0.000402627,2.79538E-06,3.5171E-07,0.130685916,2.01453681,0.00148916,-0.000548467,0.102669804
name_7,A,14,-0.000108801,-2.81045E-08,9.72052E-08,0.087884725,1.94273002,0.000463498,-0.000632847,-0.027744285
name_7,A,15,-0.000471506,-2.3259E-06,8.65595E-08,-0.531487306,2.558923784,0.000155377,-0.001060942,-0.120234067
name_7,B,1,-6.0304E-05,-3.48006E-06,2.69975E-07,0.162130355,1.761937098,0.000748344,-0.000879909,-0.015377527
name_7,B,2,-0.000488183,-4.6848E-06,2.04197E-07,-0.060397561,1.50854461,0.000174555,-0.001234913,-0.124486594
name_7,B,3,-0.000314444,2.25763E-06,8.70859E-08,-0.344820987,2.399433063,0.000151565,-0.000897795,-0.080183178
name_7,B,4,-0.000395481,-2.68217E-06,1.4762E-07,-0.776801459,2.481645198,0.000129123,-0.001206015,-0.100847776
name_7,B,5,-0.000401981,-6.21964E-07,6.41143E-08,0.136046022,1.75203365,0.000106889,-0.000772923,-0.102505218
name_7,B,6,-0.000107359,2.84694E-06,8.36102E-08,-0.418452744,2.685704394,0.000434805,-0.000687879,-0.027376426
name_7,B,7,0.000213123,1.71254E-06,6.82449E-08,-0.341692084,1.889359095,0.000567209,-0.000280553,0.05434624
name_7,B,8,-0.000192843,1.54849E-06,4.20575E-08,-0.193114258,2.817448487,0.000235826,-0.000602451,-0.049174868
name_7,B,9,0.000492418,3.47813E-06,7.87219E-08,-0.301973746,2.210763485,0.001040318,-9.88452E-05,0.125566564
name_7,B,10,-2.55778E-06,-1.443E-06,1.1833E-07,0.056671948,2.323946777,0.000613153,-0.000611889,-0.000652233
name_7,B,11,-0.000972445,-7.90064E-06,4.26083E-07,-0.01315991,1.368506791,6.70806E-05,-0.001882192,-0.247973378
name_7,B,12,-0.000211367,9.04295E-07,2.90007E-08,-0.239239506,2.531746564,0.000117035,-0.000550522,-0.053898471
name_7,B,13,-0.000694435,-8.67696E-06,6.10986E-07,-0.214519534,1.462484051,0.000338322,-0.001924313,-0.177080953
name_7,B,14,-0.000794057,-3.23003E-06,1.35437E-07,0.085122741,3.096726946,0.000142098,-0.001488147,-0.202484618
name_7,B,15,-0.000839719,-6.39148E-06,2.86011E-07,-0.371988463,1.855902805,0.000126623,-0.001779561,-0.214128295
name_7,C,1,0.001825927,-5.63319E-06,1.46581E-06,0.405801801,2.029384049,0.004031052,-0.000144031,0.465611437
name_7,C,2,0.001008475,-7.10294E-06,1.38835E-06,0.874071244,2.20620992,0.003365671,-0.000113312,0.257161031
name_7,C,3,0.000927155,4.27069E-06,4.12635E-07,-0.200735888,1.728212355,0.00183105,-0.000220245,0.236424556
name_7,C,4,0.000881217,-3.55836E-06,7.30345E-07,0.81480282,2.303268775,0.002614157,-3.54251E-05,0.224710306
name_7,C,5,0.001084097,5.06394E-07,7.28124E-07,0.346126972,1.929920317,0.00268436,-7.26284E-05,0.276444765
name_7,C,6,0.001095367,5.29035E-06,4.02459E-07,-0.710996209,2.425109142,0.00193937,-0.000212178,0.279318556
name_7,C,7,0.001819244,1.17225E-06,9.95922E-07,0.12120622,2.319311818,0.003638725,-4.83527E-05,0.463907139
name_7,C,8,0.001027719,2.93138E-06,3.79593E-07,-0.201671161,2.47360458,0.002123069,-0.000173047,0.262068248
name_7,C,9,0.001521181,4.72402E-06,4.70279E-07,-0.888513453,3.038868689,0.002490816,-2.1363E-05,0.387901058
name_7,C,10,0.001581476,-1.16213E-06,7.84512E-07,0.421692325,2.618916304,0.003340004,-5.04894E-05,0.403276303
name_7,C,11,0.000722625,-4.79976E-06,8.76455E-07,0.860188118,2.460283487,0.002691252,-0.000323862,0.184269332
name_7,C,12,0.001101925,3.70993E-06,3.40239E-07,-0.407522921,2.150144641,0.001941744,-6.32136E-05,0.280990752
name_7,C,13,0.000735942,-8.43194E-06,1.42123E-06,0.692769729,2.15392835,0.003049311,-0.001036256,0.187665184
name_7,C,14,0.000331067,-3.55027E-06,4.67044E-07,0.59857211,2.288335424,0.001692341,-0.000585165,0.084422138
name_7,C,15,-0.000109076,-5.4438E-06,3.63233E-07,0.771313761,2.185144109,0.001108168,-0.000755496,-0.027814393
name_9,B,1,-0.000134632,7.91419E-08,3.29119E-08,-0.302815621,2.718813533,0.000193517,-0.000531054,-0.034331235
name_9,B,2,0.002239976,1.19754E-05,1.84714E-06,-1.012627731,2.688186892,0.003958585,-0.000632857,0.571193874
name_9,B,3,0.002304838,1.38043E-05,2.92075E-06,-0.887894025,2.670592468,0.004746927,-0.001341191,0.587733811
name_9,B,4,-0.000727278,1.98396E-06,4.90411E-07,-0.076534346,2.343179367,0.000702207,-0.002160478,-0.185455969
name_9,B,5,0.001206237,1.42219E-06,5.06957E-07,-0.067403088,2.195673317,0.00247357,-8.61291E-05,0.307590448
name_9,B,6,0.001294911,7.16573E-06,6.23952E-07,-0.650363096,2.097268173,0.002293991,-0.000216252,0.330202396
name_9,B,7,-0.001519996,-1.96002E-07,5.60216E-07,0.585246266,2.683962507,0.000726059,-0.00254045,-0.387599017
name_9,B,8,0.00459272,2.52745E-05,4.94706E-06,-1.17725592,2.951159446,0.006901138,-0.000246296,1.171143548
name_9,B,9,0.0019364,1.64905E-05,2.33423E-06,-0.792901193,2.269310523,0.003433883,-0.001208493,0.493781889
name_9,B,10,-0.001580878,-6.69431E-07,5.36479E-07,0.445586468,3.209181911,0.000702916,-0.002791968,-0.403123861
name_9,B,11,0.001089084,5.15595E-06,7.18422E-07,-0.330297341,2.299960721,0.002534936,-0.000566034,0.277716429
name_9,B,12,-0.001527978,-5.22394E-06,3.78582E-07,1.088699904,3.487656693,0.000238359,-0.002294625,-0.389634379
name_9,B,13,0.000379333,3.97626E-06,1.32514E-06,0.091458979,2.783353311,0.002786427,-0.001882476,0.096729923
name_9,B,14,0.000744305,4.61425E-06,8.00114E-07,-0.148224241,2.651786915,0.002480164,-0.001053048,0.189797883
name_9,B,15,0.000470864,8.65721E-07,3.15064E-07,0.600537216,2.653422321,0.001699902,-0.000417381,0.120070446
name_9,A,1,-0.000737422,-4.14446E-06,2.20675E-07,-0.248100128,2.284502008,8.47185E-05,-0.001624001,-0.188042559
name_9,A,2,0.000637514,5.5325E-06,6.64241E-07,-0.467763313,2.251609633,0.001804128,-0.001010798,0.162566189
name_9,A,3,-0.002142941,-1.00591E-05,7.69841E-07,0.766744975,3.656230001,0.000499576,-0.003676712,-0.546449885
name_9,A,4,-0.002298918,-3.97864E-06,8.9529E-07,0.907381968,4.162846214,0.00085991,-0.003909943,-0.586224187
name_9,A,5,-0.000105583,2.69962E-06,2.68644E-07,-0.819834283,2.998445622,0.000641148,-0.001314434,-0.026923677
name_9,A,6,0.000630777,5.89643E-06,5.63591E-07,-0.7173984,2.466028546,0.001577255,-0.00096002,0.160848226
name_9,A,7,-0.003237124,-7.59534E-06,1.36776E-06,1.435451081,5.220637827,0.000817037,-0.004813125,-0.825466627
name_9,A,8,0.003156309,1.91317E-05,2.79529E-06,-0.930519235,2.386972769,0.005008677,-6.28648E-05,0.804858735
name_9,A,9,0.002096667,1.86205E-05,2.8243E-06,-0.645407558,2.086700897,0.00426451,-0.001136155,0.534650036
name_9,A,10,-0.00286631,-7.36911E-06,1.15416E-06,1.248953796,4.662015157,0.000734493,-0.004306327,-0.730909064
name_9,A,11,-0.000158197,6.49502E-06,7.17483E-07,-0.948576813,3.072215572,0.001014219,-0.002130495,-0.040340231
name_9,A,12,-0.002089476,-3.67305E-06,7.14251E-07,0.786813491,4.014792356,0.000613323,-0.003508769,-0.532816467
name_9,A,13,-0.002616188,-1.312E-06,1.60053E-06,0.273188588,3.182663401,0.000920585,-0.005116535,-0.66712785
name_9,A,14,-0.00071422,2.041E-06,1.07974E-06,-0.333284289,2.707653778,0.00116399,-0.00295858,-0.182126101
name_9,A,15,0.000299084,-2.82473E-06,8.07563E-07,0.387570435,2.208394447,0.002097019,-0.001033808,0.076266495
name_9,C,1,-0.001826631,-1.24255E-05,9.31831E-07,0.39363629,2.21796786,0.000105109,-0.003333922,-0.465791018
name_9,C,2,-0.001708127,-9.58431E-06,7.71503E-07,0.346139722,1.997160468,9.89902E-05,-0.002886442,-0.435572276
name_9,C,3,-0.002654456,-1.46642E-05,1.31194E-06,0.544690739,3.136974061,0.000424607,-0.004521901,-0.676886281
name_9,C,4,-0.001997908,1.6582E-06,8.51235E-07,0.369302908,2.648491664,0.000290651,-0.00352557,-0.509466648
name_9,C,5,-0.002281017,-1.10156E-05,7.82821E-07,1.157199893,3.955753188,0.000429054,-0.003253535,-0.58165936
name_9,C,6,-0.001415737,-8.87367E-06,5.76221E-07,0.003011343,2.117861605,0.000468699,-0.002625461,-0.361013024
name_9,C,7,-0.001543142,4.02443E-06,8.55492E-07,0.018517122,1.870219008,0.000326339,-0.003061395,-0.393501253
name_9,C,8,-0.000311683,-6.07171E-06,4.91253E-07,0.124266819,1.723001763,0.000830502,-0.00134143,-0.079479218
name_9,C,9,-0.000779164,-2.3334E-05,5.66108E-06,-0.098926649,1.63179919,0.002710311,-0.004489753,-0.19868688
name_9,C,10,-0.001618175,-4.45134E-07,3.91177E-07,0.895278089,4.432375488,0.000400353,-0.002676188,-0.412634514
name_9,C,11,-0.001648972,-6.56213E-06,4.70101E-07,0.994363055,3.110728466,0.000327893,-0.002362865,-0.420487942
name_9,C,12,-0.002154573,-1.09478E-05,8.05838E-07,0.783284786,3.259985052,0.00031005,-0.003477217,-0.549416021
name_9,C,13,-0.001583022,9.17149E-06,1.72228E-06,-0.615681534,2.330062485,0.0003797,-0.004267834,-0.40367055
name_9,C,14,-0.002401201,-1.17161E-05,1.00553E-06,0.848314896,3.077170047,0.00027477,-0.003651127,-0.612306195
name_9,C,15,-0.000347018,2.83002E-06,1.30024E-07,-0.113819064,1.422011993,0.000110121,-0.000929159,-0.088489701
name_10,B,1,-0.000966022,-2.62483E-06,1.27896E-07,1.408127453,4.792664306,0.000198312,-0.001430344,-0.24633566
name_10,B,2,-0.000629684,-4.43596E-07,1.52138E-07,-0.031202273,1.591531208,6.97945E-05,-0.001171488,-0.160569446
name_10,B,3,-8.53941E-05,1.92507E-06,1.87413E-07,0.300744691,2.132566139,0.000753921,-0.000673945,-0.021775489
name_10,B,4,-0.000481112,7.85455E-07,2.21186E-07,-0.294652375,1.788646462,0.000220386,-0.001267667,-0.122683629
name_10,B,5,-0.000467778,-2.10703E-08,1.79808E-07,-0.297859603,1.93227643,0.000191779,-0.001207149,-0.119283506
name_10,B,6,-0.000228023,4.31333E-08,9.25809E-08,-0.09219958,1.972977337,0.000299445,-0.00073498,-0.058145977
name_10,B,7,-0.000437126,3.87588E-06,5.05372E-07,0.068217762,1.848799042,0.000780383,-0.001509962,-0.111467097
name_10,B,8,-7.31921E-05,6.65693E-06,5.04634E-07,0.474634632,1.660312098,0.001114375,-0.000874935,-0.018663986
name_10,B,9,-0.000137188,4.92225E-06,3.90871E-07,0.453330285,1.832823927,0.000953142,-0.000911105,-0.034983034
name_10,B,10,-0.000736997,-2.65248E-07,2.67731E-07,0.18310994,1.955269328,0.000162964,-0.001579483,-0.187934338
name_10,B,11,-0.000149122,4.63642E-06,3.38685E-07,0.40678848,1.784282504,0.000890389,-0.00087239,-0.038026122
name_10,B,12,-0.000353194,3.51862E-06,3.49102E-07,0.28022544,1.790501104,0.000661897,-0.001181102,-0.090064465
name_10,B,13,-0.00081527,-1.08741E-06,1.7038E-07,0.29362451,2.218580884,1.90317E-05,-0.001410974,-0.207893785
name_10,B,14,-0.000216919,1.77911E-06,1.60456E-07,-0.018685425,1.837891481,0.000444984,-0.000846123,-0.055314262
name_10,B,15,-0.000968593,-2.81687E-06,1.68711E-07,1.080943477,3.187222841,0.000111605,-0.001389029,-0.24699112
name_10,C,1,0.000255665,1.18298E-06,4.5081E-08,-0.36168883,2.155754837,0.000566208,-0.000160899,0.065194632
name_10,C,2,0.000999609,1.95075E-06,2.54088E-07,-0.041411558,2.610762999,0.001892785,-8.23734E-05,0.254900268
name_10,C,3,6.46303E-05,1.00861E-06,5.95093E-08,-0.147608722,1.99439839,0.000492746,-0.000367676,0.016480727
name_10,C,4,0.000148605,1.50698E-06,2.03718E-08,0.429953569,2.330981367,0.000452091,-5.33484E-05,0.037894385
name_10,C,5,-0.000751535,-1.56149E-06,6.6647E-08,1.774513616,6.525346454,0.000253525,-0.001025894,-0.191641381
name_10,C,6,-0.000353162,-1.42848E-07,8.81309E-08,0.24951824,1.809933776,0.000206882,-0.000737857,-0.090056247
name_10,C,7,-6.34588E-06,2.64102E-06,6.54508E-08,1.122344724,3.671409107,0.000631008,-0.000334321,-0.0016182
name_10,C,8,0.000411673,6.17977E-06,2.35435E-07,0.704898234,2.653580597,0.001498707,-0.000215683,0.104976488
name_10,C,9,0.000386456,4.21895E-06,1.1786E-07,1.119114451,3.851667674,0.001360014,-6.25073E-05,0.098546356
name_10,C,10,0.000258489,4.11731E-06,1.02673E-07,0.248090352,2.031412379,0.000947687,-0.00021566,0.065914713
name_10,C,11,0.000208143,2.62563E-06,4.64219E-08,0.767965522,3.573572609,0.000820444,-9.33754E-05,0.053076557
name_10,C,12,0.000258311,9.61676E-07,6.66352E-08,0.712115407,2.186478578,0.000794811,-2.80137E-05,0.065869358
name_10,C,13,0.000571279,5.33875E-06,1.89155E-07,-0.473096967,1.666834613,0.001226501,-0.000120376,0.145676106
name_10,C,14,0.00026224,-4.84052E-07,1.48481E-07,0.436974992,1.967452389,0.000994385,-0.000283519,0.066871095
name_10,C,15,0.000301855,2.17223E-06,3.81188E-08,0.882547108,3.804656387,0.000794118,-1.46643E-05,0.076972906
name_10,A,1,-0.002436763,-1.37118E-05,1.2276E-06,1.034457887,2.731869521,7.08854E-05,-0.003420331,-0.621374571
name_10,A,2,-0.000909394,-8.78861E-06,4.92158E-07,-0.478768657,1.856342556,6.45555E-05,-0.002083219,-0.231895428
name_10,A,3,-0.000213875,3.88998E-07,8.60021E-08,0.25409077,3.102350827,0.000668759,-0.000751646,-0.054538147
name_10,A,4,-0.001327414,-8.45833E-06,4.82812E-07,0.520911901,2.001304454,3.65023E-05,-0.002204818,-0.338490694
name_10,A,5,-0.000967788,-6.50675E-06,3.3518E-07,0.20422731,1.508170464,0.000106205,-0.001716762,-0.246786057
name_10,A,6,-0.00017328,4.13727E-07,8.13226E-08,1.571277355,6.162118542,0.000959763,-0.000518642,-0.044186379
name_10,A,7,-0.001429892,-7.249E-06,5.86939E-07,0.456327391,1.770524643,0.000129527,-0.002311248,-0.364622459
name_10,A,8,-0.000982474,-4.86385E-06,2.24106E-07,0.606356488,2.225858459,0.000135269,-0.001582918,-0.250530776
name_10,A,9,-0.000244403,1.52761E-06,1.09097E-07,1.946008614,6.671177431,0.001023552,-0.000557704,-0.062322688
name_10,A,10,-0.003351003,-1.76236E-05,2.20557E-06,0.996800108,2.748697963,0.000373122,-0.004695673,-0.854505678
name_10,A,11,-0.001756924,-7.62025E-06,5.75188E-07,1.052625973,2.980742411,0.00016714,-0.002466378,-0.44801562
name_10,A,12,-0.000173231,2.0779E-06,1.39514E-07,0.893964742,3.446429734,0.000954744,-0.00066243,-0.044173903
name_10,A,13,-0.00252628,-1.16489E-05,1.21617E-06,1.087699491,2.949651093,0.000136223,-0.003517784,-0.644201475
name_10,A,14,-0.000876624,-2.63756E-06,1.02496E-07,1.571965821,4.834779645,0.000103497,-0.001214982,-0.223539041
name_10,A,15,-0.001502547,-7.32206E-06,4.64657E-07,1.0101559,2.712528291,6.24777E-05,-0.002098874,-0.383149461
name_11,C,1,-0.000752049,-1.42339E-05,1.60619E-06,-1.060559319,2.558122134,0.000505352,-0.00334989,-0.191772388
name_11,C,2,,,,,,,,
name_11,C,3,-0.000704362,-1.11131E-05,7.88731E-07,-0.897299128,2.53331619,0.000121777,-0.002639483,-0.179612406
name_11,C,4,9.10282E-05,-2.94255E-06,2.4262E-07,-1.519826415,5.000042486,0.000702084,-0.001422388,0.023212191
name_11,C,5,-0.000988402,-6.14617E-06,5.40238E-07,-1.091026444,3.850270492,0.000544694,-0.003004005,-0.252042583
name_11,C,6,-0.00126445,-1.02575E-05,7.04555E-07,-0.720678177,2.562869347,0.000353423,-0.003059523,-0.322434746
name_11,C,7,0.000184866,1.8926E-06,4.28881E-07,-0.501489275,1.836844194,0.001046451,-0.001012435,0.047140725
name_11,C,8,-0.000547187,-4.1622E-06,1.97328E-07,-1.33883987,4.144235462,0.000201892,-0.001822689,-0.139532616
name_11,C,9,-0.00071522,-4.39057E-06,2.55022E-07,-1.160803757,3.951922058,0.00025166,-0.002127927,-0.182381031
name_11,C,10,0.000248772,2.29829E-06,2.48052E-07,-0.493300444,1.685657924,0.000830782,-0.000633772,0.063436827
name_11,C,11,-9.43092E-05,-4.39624E-07,1.42252E-07,-0.846650947,2.585994478,0.000310079,-0.001053383,-0.024048858
name_11,C,12,-0.000527728,-4.80624E-06,2.41413E-07,-0.984767261,3.382218619,7.50549E-05,-0.001792953,-0.134570648
name_11,C,13,0.000680719,5.4403E-06,4.76414E-07,-0.098881114,1.881896866,0.001800879,-0.000465326,0.173583448
name_11,C,14,-0.000132355,-3.47792E-06,1.97323E-07,-1.122681947,4.168968649,0.000483058,-0.001445727,-0.033750499
name_11,C,15,-8.27275E-05,-3.95226E-06,1.38134E-07,-1.488630014,4.360433148,0.000298248,-0.001157772,-0.021095516
name_11,A,1,0.001203528,-1.28986E-05,3.4022E-06,-0.108713286,1.531811863,0.003962339,-0.001534122,0.306899688
name_11,A,2,,,,,,,,
name_11,A,3,0.00036991,1.71635E-06,1.81729E-07,-0.374006108,1.79943691,0.001016895,-0.000427247,0.094327053
name_11,A,4,0.000677048,4.52469E-06,3.88187E-07,-0.098405527,2.266798702,0.001936613,-0.000487649,0.172647211
name_11,A,5,0.000491811,4.64961E-06,2.80086E-07,0.042757062,2.712304604,0.001617433,-0.000558479,0.125411761
name_11,A,6,-0.000310085,-1.79295E-06,1.12238E-07,0.487113781,2.534569049,0.000442487,-0.000861098,-0.079071654
name_11,A,7,0.000768501,7.34273E-06,6.05983E-07,0.202939088,2.714624555,0.002465062,-0.000701241,0.195967671
name_11,A,8,-0.000395001,-1.4228E-06,2.19033E-07,0.204005544,2.048322462,0.000546617,-0.001205306,-0.100725307
name_11,A,9,-0.000861416,-4.03853E-06,3.06166E-07,0.714588296,2.756944131,0.000688017,-0.001688882,-0.219661116
name_11,A,10,2.32962E-05,3.26649E-06,2.63949E-07,0.509618444,2.722684603,0.001268875,-0.000822241,0.005940535
name_11,A,11,-0.000445231,1.43584E-06,1.30983E-07,0.817748954,3.052980023,0.000468689,-0.000984523,-0.113533926
name_11,A,12,-0.000527749,-1.56097E-06,9.69929E-08,0.495942274,2.434019826,0.000389544,-0.000989924,-0.134576043
name_11,A,13,0.000195492,3.53076E-06,1.43287E-07,0.349800609,3.090892262,0.001079188,-0.000526792,0.049850377
name_11,A,14,-0.000556454,-3.77452E-06,1.45481E-07,-0.179081318,2.414172763,0.00031437,-0.001276512,-0.141895859
name_11,A,15,-0.000369651,-2.53602E-06,9.67669E-08,-0.381355893,2.289319491,0.000184217,-0.00098913,-0.094261111
name_11,B,1,-0.002317729,-8.61674E-06,6.79308E-07,1.577423324,5.275440452,0.000311176,-0.003296337,-0.591020933
name_11,B,2,-0.003580175,1.73988E-05,1.38234E-05,-0.16420879,2.017498298,0.002423273,-0.0102231,-0.912944752
name_11,B,3,0.000360913,9.44752E-06,8.68261E-07,-0.094824666,1.628428187,0.00170669,-0.001087464,0.09203279
name_11,B,4,-0.000312934,-3.71008E-06,1.07687E-07,-0.432826744,2.463945703,0.000200041,-0.001001715,-0.079798254
name_11,B,5,-0.000492527,1.87526E-06,1.11509E-07,0.046417146,2.141485816,0.000284852,-0.001064585,-0.12559433
name_11,B,6,-0.000801798,-2.5196E-07,1.06389E-07,0.86537216,3.725778877,0.000175396,-0.001334857,-0.204458538
name_11,B,7,0.000650469,-1.88115E-09,8.55442E-08,-0.771770516,2.761635256,0.001050262,-6.98327E-05,0.165869558
name_11,B,8,-0.000431145,-1.41831E-06,6.25162E-08,0.268972109,1.678688204,8.94389E-06,-0.000785319,-0.109941955
name_11,B,9,-0.000355012,-2.07688E-06,4.90679E-08,0.244948992,1.574932676,3.37432E-05,-0.000646898,-0.090527981
name_11,B,10,0.000127325,-4.43202E-06,1.9089E-07,-0.613159791,2.786221596,0.000824316,-0.000858613,0.032467844
name_11,B,11,-0.000103904,-6.78707E-06,3.21066E-07,-0.232655459,1.952171272,0.000809489,-0.00113201,-0.026495572
name_11,B,12,-0.000278865,-3.44433E-06,1.50635E-07,-0.174965533,1.633534944,0.000263072,-0.000937163,-0.071110661
name_11,B,13,-0.000359238,-1.12069E-05,8.15355E-07,-0.141685174,1.774617379,0.001030289,-0.001764703,-0.091605616
name_11,B,14,-0.000504996,-4.72844E-06,1.49803E-07,-0.516371651,2.197358893,7.58616E-05,-0.001232138,-0.128773894
name_11,B,15,-0.00010278,-1.05182E-05,7.78673E-07,-0.122646291,1.907947592,0.001286775,-0.001608738,-0.026208952
name_12,C,1,0.000142557,-6.28806E-07,3.9149E-08,0.114002751,2.646405596,0.000504619,-0.000312592,0.036352108
name_12,C,2,0.002611136,2.99905E-05,5.36237E-06,0.299692218,1.440993325,0.006127948,-0.000210582,0.665839554
name_12,C,3,0.000460241,2.1563E-05,3.77793E-06,0.369107507,1.512451874,0.003532163,-0.001801015,0.11736149
name_12,C,4,-6.70537E-06,7.95166E-06,4.95381E-07,-0.216111334,1.592655385,0.000908361,-0.001117464,-0.00170987
name_12,C,5,0.000606911,1.02855E-05,7.60862E-07,-0.436279002,1.472343388,0.001576614,-0.000757165,0.154762411
name_12,C,6,3.9748E-05,4.60907E-06,1.82573E-07,0.740741118,2.050032583,0.000818461,-0.000466009,0.010135738
name_12,C,7,-0.00030588,7.84381E-06,6.30262E-07,-0.124383492,1.653769655,0.000787944,-0.001582046,-0.077999329
name_12,C,8,-0.00087958,-3.05634E-07,1.57017E-07,0.642433955,2.555406142,0.00013936,-0.00141528,-0.224292936
name_12,C,9,-0.000798211,2.47333E-06,2.30413E-07,0.30662283,1.611105618,0.000299729,-0.001401405,-0.203543719
name_12,C,10,-0.002870357,-8.80907E-06,9.5534E-07,2.042374359,6.362663666,0.000728401,-0.003702837,-0.731940938
name_12,C,11,0.000252665,2.55973E-06,1.07086E-07,0.458979616,1.829107338,0.00084196,-0.000305622,0.064429675
name_12,C,12,-0.000735359,-4.16327E-07,8.30281E-08,1.211729509,4.645812351,0.000335489,-0.001113385,-0.187516588
name_12,C,13,-0.001032872,8.34428E-06,1.04884E-06,-0.251649457,1.707266629,0.000694211,-0.002736466,-0.263382333
name_12,C,14,-0.000883618,5.8465E-06,5.94505E-07,-0.001488439,1.547794515,0.000528041,-0.002024582,-0.225322594
name_12,C,15,0.00030078,7.41808E-06,3.63883E-07,0.326215893,1.584844872,0.001414247,-0.000443567,0.076698791
name_12,B,1,0.00376737,3.56812E-06,2.22677E-06,-1.08062369,3.609062365,0.005367136,-0.000584769,0.960679225
name_12,B,2,0.010294036,1.19575E-05,1.69068E-05,-1.148644335,3.536449994,0.014530058,-0.001316286,2.624979092
name_12,B,3,-0.000104404,1.00496E-05,1.36374E-06,0.470183994,1.735022446,0.001951731,-0.001364394,-0.02662308
name_12,B,4,0.001149982,2.48787E-06,1.41937E-07,-2.064919557,7.689389043,0.001541359,-0.00036856,0.293245347
name_12,B,5,-5.41569E-05,1.11322E-05,1.19271E-06,0.059409964,1.440016654,0.001487318,-0.001558934,-0.013810006
name_12,B,6,0.000431549,3.72564E-06,1.05734E-07,0.406872598,2.270873934,0.001127603,-0.00013107,0.110044879
name_12,B,7,0.000609715,1.3971E-05,1.34975E-06,0.265859124,1.405332209,0.002318554,-0.000845801,0.155477383
name_12,B,8,0.000471298,4.31635E-06,1.95962E-07,-0.486365528,2.047491345,0.001059867,-0.000384132,0.120181115
name_12,B,9,-0.000210763,2.36918E-07,2.51842E-08,-0.411544637,2.082699347,0.000113998,-0.000512452,-0.053744537
name_12,B,10,-0.000790258,7.07801E-06,6.54978E-07,-0.027451686,1.551322618,0.000605046,-0.002070606,-0.201515904
name_12,B,11,0.000555564,3.01229E-06,8.75479E-08,-0.416428929,2.039617737,0.000990012,-1.94717E-05,0.141668882
name_12,B,12,-0.000701634,-6.49985E-06,2.72839E-07,0.462577966,1.554039727,0.000142921,-0.001274317,-0.178916608
name_12,B,13,-0.000586902,1.02501E-05,1.14223E-06,-0.035727378,1.497791182,0.000892355,-0.002253594,-0.149660084
name_12,B,14,-0.000209378,7.67324E-06,6.35142E-07,0.215347665,1.59920222,0.001064874,-0.001314464,-0.053391294
name_12,B,15,0.002338961,6.87059E-06,8.737E-07,-1.268028504,3.620877848,0.003242185,-0.000305922,0.596434978
name_12,A,1,0.00376737,3.56812E-06,2.22677E-06,-1.08062369,3.609062365,0.005367136,-0.000584769,0.960679225
name_12,A,2,0.010294036,1.19575E-05,1.69068E-05,-1.148644335,3.536449994,0.014530058,-0.001316286,2.624979092
name_12,A,3,-0.000104404,1.00496E-05,1.36374E-06,0.470183994,1.735022446,0.001951731,-0.001364394,-0.02662308
name_12,A,4,0.001149982,2.48787E-06,1.41937E-07,-2.064919557,7.689389043,0.001541359,-0.00036856,0.293245347
name_12,A,5,-5.41569E-05,1.11322E-05,1.19271E-06,0.059409964,1.440016654,0.001487318,-0.001558934,-0.013810006
name_12,A,6,0.000431549,3.72564E-06,1.05734E-07,0.406872598,2.270873934,0.001127603,-0.00013107,0.110044879
name_12,A,7,0.000609715,1.3971E-05,1.34975E-06,0.265859124,1.405332209,0.002318554,-0.000845801,0.155477383
name_12,A,8,0.000471298,4.31635E-06,1.95962E-07,-0.486365528,2.047491345,0.001059867,-0.000384132,0.120181115
name_12,A,9,-0.000210763,2.36918E-07,2.51842E-08,-0.411544637,2.082699347,0.000113998,-0.000512452,-0.053744537
name_12,A,10,-0.000790258,7.07801E-06,6.54978E-07,-0.027451686,1.551322618,0.000605046,-0.002070606,-0.201515904
name_12,A,11,0.000555564,3.01229E-06,8.75479E-08,-0.416428929,2.039617737,0.000990012,-1.94717E-05,0.141668882
name_12,A,12,-0.000701634,-6.49985E-06,2.72839E-07,0.462577966,1.554039727,0.000142921,-0.001274317,-0.178916608
name_12,A,13,-0.000586902,1.02501E-05,1.14223E-06,-0.035727378,1.497791182,0.000892355,-0.002253594,-0.149660084
name_12,A,14,-0.000209378,7.67324E-06,6.35142E-07,0.215347665,1.59920222,0.001064874,-0.001314464,-0.053391294
name_12,A,15,0.002338961,6.87059E-06,8.737E-07,-1.268028504,3.620877848,0.003242185,-0.000305922,0.596434978
name_13,A,1,-0.000596746,-9.17832E-06,5.82348E-07,-0.446229787,1.826776421,0.000377206,-0.001969932,-0.152170244
name_13,A,2,0.000231484,-1.26913E-06,6.82062E-08,-0.920694729,2.657271884,0.000529847,-0.000351435,0.059028303
name_13,A,3,0.000552645,-1.10893E-07,9.46842E-08,-1.116067427,2.741968946,0.000872331,-0.000141825,0.140924427
name_13,A,4,0.000717673,7.84512E-07,1.84454E-07,-0.489677488,1.685411211,0.001265834,-1.32796E-05,0.183006566
name_13,A,5,0.000350877,-1.05406E-06,9.32995E-08,-0.810338657,2.383883782,0.000710184,-0.000324913,0.089473689
name_13,A,6,0.000210956,-1.44614E-06,9.88511E-08,-1.314748308,3.719921814,0.000496516,-0.000607207,0.053793712
name_13,A,7,0.000579925,-6.71926E-07,1.70782E-07,-0.564174603,1.721685436,0.001036605,-0.000160861,0.147880854
name_13,A,8,0.000119555,-1.36083E-06,1.05481E-07,-1.066188093,3.16036543,0.000460864,-0.000674082,0.030486442
name_13,A,9,-1.30162E-05,-2.4365E-06,1.54654E-07,-1.286156568,3.65129373,0.000396151,-0.000993939,-0.00331912
name_13,A,10,0.000370326,-1.16911E-06,1.68348E-07,-0.721965273,2.393691076,0.000912511,-0.000496998,0.094433093
name_13,A,11,6.87517E-05,-2.64556E-06,1.4041E-07,-1.184395772,3.374830579,0.000497342,-0.000825446,0.017531686
name_13,A,12,0.000139435,-7.72002E-07,7.63659E-08,-0.667682867,2.481100451,0.000509287,-0.000512464,0.035555891
name_13,A,13,0.000424366,-1.47506E-06,1.6013E-07,-0.866455143,2.382323081,0.000836106,-0.000430567,0.108213363
name_13,A,14,0.000122427,-1.41192E-06,5.01394E-08,-0.760703079,2.519474933,0.000417281,-0.000348944,0.031218864
name_13,A,15,-0.000211847,-4.63473E-06,1.47325E-07,-0.650654241,2.089052081,0.000258409,-0.000920196,-0.054020923
name_13,B,1,0.000406291,-3.59282E-06,2.30651E-07,-0.489904748,2.021072724,0.000974507,-0.00062726,0.103604194
name_13,B,2,0.000580354,1.05115E-07,8.6905E-08,-0.393373287,2.174139851,0.001033169,-1.36996E-05,0.147990162
name_13,B,3,2.46897E-05,1.43647E-06,8.69438E-08,-0.311458593,2.059469296,0.000473372,-0.000577268,0.006295871
name_13,B,4,0.001271475,5.29095E-06,2.43119E-07,-1.379255283,4.091088642,0.001770959,-7.06682E-05,0.324226198
name_13,B,5,0.000860172,2.60212E-06,1.22542E-07,-1.358265975,3.733104534,0.0012336,-1.61379E-05,0.219343774
name_13,B,6,0.00080259,4.12372E-06,1.68251E-07,-1.109764189,2.716290021,0.001217156,-5.78381E-05,0.20466054
name_13,B,7,0.001281271,5.14519E-06,2.52612E-07,-1.351677608,3.998580208,0.001801095,-4.45534E-05,0.326724017
name_13,B,8,0.001306438,7.59813E-06,4.09006E-07,-0.712162508,2.356466166,0.002056155,-1.89854E-05,0.333141589
name_13,B,9,0.001455974,7.90123E-06,4.35605E-07,-1.099245565,2.855995429,0.002060922,-1.97041E-05,0.371273409
name_13,B,10,0.000978333,5.05848E-06,1.74454E-07,-0.90517595,3.180489941,0.001553632,-2.44895E-05,0.249474803
name_13,B,11,0.0009048,5.39294E-06,1.75369E-07,-0.746042903,2.644374186,0.001431644,-2.18799E-05,0.230723933
name_13,B,12,0.000609564,4.91976E-06,1.43583E-07,0.184948032,1.864924459,0.001187215,-2.10555E-05,0.155438712
name_13,B,13,0.00104834,4.70993E-06,1.77644E-07,-1.265460018,3.738844295,0.001545167,-2.59347E-05,0.267326623
name_13,B,14,0.000496116,2.41702E-06,4.91989E-08,-0.775060363,2.973270653,0.000806795,-1.1294E-05,0.126509703
name_13,B,15,-9.86583E-05,-5.48586E-06,2.15538E-07,-0.152979107,2.038142982,0.000605088,-0.001101493,-0.025157865
name_13,C,1,0.000472958,-4.17547E-06,3.31491E-07,-0.8307705,2.471510874,0.001140213,-0.000825958,0.120604353
name_13,C,2,-0.000760229,-3.94701E-06,2.8916E-07,0.287345351,2.057561952,0.000286472,-0.001522722,-0.193858403
name_13,C,3,-0.001654091,-7.26818E-06,7.48523E-07,0.527813365,2.23236019,4.51571E-05,-0.002776815,-0.421793232
name_13,C,4,-0.000601663,8.48489E-07,3.25197E-07,-0.561849383,2.232253847,0.000219017,-0.001739557,-0.153424128
name_13,C,5,-0.001154249,-3.48789E-06,4.46249E-07,0.375776494,2.102876776,0.000164093,-0.00210669,-0.294333454
name_13,C,6,-0.000889719,-3.38848E-06,3.42543E-07,0.008327379,1.76614816,8.41957E-05,-0.001887338,-0.2268784
name_13,C,7,-0.001108978,-9.29007E-07,5.84488E-07,-0.107361631,2.074479564,0.000245337,-0.002489211,-0.282789402
name_13,C,8,-0.000290586,8.11471E-10,1.70574E-07,-0.159971766,1.617662308,0.000314148,-0.000961069,-0.074099407
name_13,C,9,-0.000220559,-7.20273E-07,2.3941E-07,-0.185470477,1.584936383,0.000472922,-0.001003693,-0.056242451
name_13,C,10,-0.000911266,-9.3178E-07,4.71957E-07,-0.20771238,1.943780825,0.000211837,-0.002161979,-0.232372925
name_13,C,11,-0.000210492,-1.60982E-07,1.24383E-07,-0.216798051,1.672891912,0.000266345,-0.000819364,-0.053675438
name_13,C,12,-0.000421697,-4.39803E-07,2.20287E-07,-0.283565872,1.761910103,0.000248706,-0.00123668,-0.107532621
name_13,C,13,-0.000275333,1.24179E-06,2.24245E-07,-0.701219376,2.327695202,0.000283575,-0.001245816,-0.070209857
name_13,C,14,-0.000284091,-1.09241E-06,8.96383E-08,-0.25480623,2.069332455,0.000233276,-0.000848463,-0.072443172
name_13,C,15,5.51311E-05,-3.3661E-06,1.39176E-07,-0.643289754,2.519251234,0.00060073,-0.000769873,0.014058428
name_14,A,1,-0.001289221,-7.05684E-06,3.07468E-07,0.837809492,2.973669924,0.000142702,-0.00193385,-0.32875131
name_14,A,2,0.001472883,1.39203E-05,1.46412E-06,-0.059263175,2.8464402,0.003803698,-0.000885058,0.375585087
name_14,A,3,-0.001267637,-9.39582E-08,3.59802E-07,1.110561345,3.150416672,0.000445973,-0.001828419,-0.323247541
name_14,A,4,-0.000349806,5.18047E-06,3.0716E-07,0.17030613,3.065054534,0.00083386,-0.001445414,-0.089200646
name_14,A,5,-0.000208116,8.76897E-06,6.7046E-07,0.323474003,3.220405234,0.001763618,-0.001711243,-0.053069575
name_14,A,6,-9.5073E-05,6.20751E-06,3.17184E-07,0.636409821,2.981625868,0.001160269,-0.000990186,-0.024243611
name_14,A,7,-0.001036164,3.03607E-07,2.45108E-07,0.69000145,2.406826146,6.43821E-05,-0.001736612,-0.26422187
name_14,A,8,0.000262508,1.27412E-05,1.12644E-06,0.567490584,2.766704376,0.002632195,-0.001324841,0.06693952
name_14,A,9,0.000251496,6.24681E-06,2.55938E-07,0.55201059,2.861505259,0.001398371,-0.000545634,0.064131463
name_14,A,10,-0.000946467,1.20703E-06,2.68926E-07,0.647557059,2.219629185,7.59193E-05,-0.001685122,-0.241348992
name_14,A,11,0.000585421,7.88224E-06,4.11793E-07,0.293137231,2.91169274,0.001940144,-0.000540156,0.149282283
name_14,A,12,6.62663E-05,2.16669E-06,1.47502E-07,0.790472031,3.157662706,0.001098627,-0.00050415,0.016897897
name_14,A,13,0.000104499,4.56374E-06,2.4202E-07,0.896611148,3.480455693,0.001284822,-0.000678249,0.026647195
name_14,A,14,0.001094048,6.13028E-06,3.69708E-07,-0.452469975,3.034180105,0.002313722,-0.000173557,0.278982176
name_14,A,15,0.000767,4.36365E-06,1.60698E-07,-1.011551499,3.160429359,0.001329134,-0.000160216,0.19558493
name_14,C,1,0.001725009,5.66885E-06,6.4843E-07,-0.526815599,2.965293634,0.003040597,-3.09174E-05,0.439877187
name_14,C,2,0.001377759,6.71152E-06,1.80607E-06,0.078584522,2.106938736,0.003964413,-0.001062436,0.351328517
name_14,C,3,-0.001555447,-8.13127E-06,9.12526E-07,-0.027706426,1.77291497,0.000375249,-0.003062753,-0.396639061
name_14,C,4,0.000846522,2.76002E-06,1.91005E-07,-0.183291908,2.091777639,0.001622991,-3.79235E-05,0.215863159
name_14,C,5,0.000569686,3.72757E-06,4.38471E-07,0.020331349,1.709830103,0.001647784,-0.000460882,0.145270031
name_14,C,6,-9.70571E-05,2.16565E-06,2.07109E-07,0.441571621,2.579276919,0.000881926,-0.000866376,-0.024749555
name_14,C,7,0.000853554,3.05572E-07,3.0977E-07,-0.070397364,2.315388547,0.001906022,-0.000491061,0.217656209
name_14,C,8,0.000380501,3.4043E-06,4.49264E-07,0.576173152,2.766308803,0.001851093,-0.000746619,0.097027752
name_14,C,9,1.84108E-05,4.58382E-06,2.90353E-07,-0.397182463,2.675781692,0.000945785,-0.00114141,0.004694761
name_14,C,10,0.000577644,-5.25368E-07,5.21681E-07,-0.120065842,1.937384391,0.001813369,-0.000751946,0.147299266
name_14,C,11,0.000105534,4.28729E-06,2.24986E-07,0.660732401,2.691079777,0.001204324,-0.000585405,0.026911253
name_14,C,12,-0.000507651,-1.674E-06,2.21183E-07,-0.081260288,1.937826552,0.000549347,-0.001382478,-0.129451006
name_14,C,13,0.001106668,3.1684E-06,3.66924E-07,-0.148417723,1.968544671,0.002144592,-2.49089E-05,0.282200379
name_14,C,14,0.001960926,7.37518E-06,1.38797E-06,-0.96271795,2.853231796,0.00347737,-0.000683843,0.500036094
name_14,C,15,0.003451148,1.86888E-05,3.63402E-06,-1.146911456,2.855950544,0.00555818,-0.000675042,0.880042845
name_14,B,1,0.001633605,7.93034E-06,6.50682E-07,-1.023519686,2.808128431,0.002561083,-9.99468E-05,0.416569176
name_14,B,2,0.001712776,6.55375E-06,2.24829E-06,-0.392424576,1.850949761,0.004032327,-0.001057548,0.436757864
name_14,B,3,-0.000289936,-4.59678E-06,1.11576E-06,-0.006830547,2.282622489,0.001627572,-0.002215772,-0.073933695
name_14,B,4,0.000764777,4.33619E-06,2.38325E-07,-0.143698621,1.637635291,0.001476013,-1.90853E-05,0.195018015
name_14,B,5,0.000790076,3.19202E-06,6.86427E-07,0.281365293,1.924945755,0.002326473,-0.000373849,0.201469266
name_14,B,6,0.000851877,2.40994E-06,2.10813E-07,-0.376994504,2.696815891,0.001676972,-7.74009E-05,0.217228632
name_14,B,7,0.000944811,1.89492E-06,2.28427E-07,-0.403593654,2.655024518,0.001730076,-0.000470225,0.240926683
name_14,B,8,0.001578848,6.81186E-06,5.71582E-07,-1.160180176,3.098591999,0.002473658,-0.00012534,0.402606211
name_14,B,9,0.001055526,5.6072E-06,3.3157E-07,-1.122157984,2.995659472,0.001693836,-0.000251508,0.269159197
name_14,B,10,0.000397027,-4.29984E-06,6.21306E-07,0.957143713,2.723756609,0.00214998,-0.000570833,0.101241995
name_14,B,11,0.000607703,4.09839E-06,4.25923E-07,0.527574924,2.144818583,0.001979425,-0.000242081,0.154964345
name_14,B,12,0.00089034,1.74157E-06,4.26883E-07,0.356513644,2.398952165,0.00219425,-0.000258523,0.22703659
name_14,B,13,0.001200002,-5.58124E-07,5.96771E-07,0.541788585,2.409214897,0.002802144,-0.00020858,0.306000386
name_14,B,14,0.003305013,7.08581E-06,2.05789E-06,-0.824235604,3.563362411,0.005668127,-6.72098E-05,0.842778293
name_14,B,15,0.003842986,1.59979E-05,2.76724E-06,-1.462346585,3.683839207,0.005401972,-0.00014721,0.979961469
name_15,B,1,-0.000177097,-8.88807E-07,4.13727E-08,-0.745611011,2.653503615,0.000192025,-0.000618699,-0.045159735
name_15,B,2,0.000410447,2.30086E-06,3.85001E-07,-0.278631493,1.723114742,0.001350692,-0.000683643,0.104663962
name_15,B,3,9.70145E-05,1.69501E-06,4.1679E-07,-0.151650769,1.883466076,0.001201254,-0.001009258,0.024738704
name_15,B,4,0.000396801,3.93904E-06,2.3296E-07,-0.088622297,2.381166435,0.001497587,-0.000514329,0.101184336
name_15,B,5,0.000108504,4.73549E-06,4.4992E-07,-0.219836308,2.417652768,0.001471963,-0.001238221,0.027668413
name_15,B,6,-0.000138161,1.12292E-06,3.98946E-07,0.211035296,2.221386913,0.001113857,-0.001210954,-0.035230932
name_15,B,7,0.001103804,7.77745E-06,7.65454E-07,-0.52808465,2.389529967,0.002446556,-0.000658808,0.281469932
name_15,B,8,0.000157907,3.00037E-06,3.12651E-07,-0.030935421,2.209525324,0.0011808,-0.000885448,0.040266305
name_15,B,9,5.23543E-05,1.83925E-06,1.95787E-07,0.381398476,2.434481468,0.000975954,-0.000674011,0.013350334
name_15,B,10,0.000461079,2.779E-06,3.31122E-07,-0.260996336,1.780348868,0.001452793,-0.000564177,0.117575134
name_15,B,11,-0.000529314,-1.35688E-06,2.90323E-07,-0.385239139,2.754493554,0.00078783,-0.001683259,-0.134975037
name_15,B,12,0.000286608,1.80661E-06,2.11138E-07,0.160953891,2.552869585,0.001664764,-0.0004481,0.073084928
name_15,B,13,0.000117837,2.20509E-06,2.21916E-07,-0.339447137,1.989972583,0.000969049,-0.000787623,0.030048381
name_15,B,14,0.000350575,6.70686E-07,1.68647E-07,0.001862698,1.93978168,0.001345508,-0.000305077,0.089396724
name_15,B,15,-0.000383851,-2.54342E-06,1.09508E-07,-0.902932214,2.943463382,0.000226508,-0.001133561,-0.097881983
name_15,A,1,-0.001263041,-6.18963E-06,9.42653E-07,-0.742120863,2.512316301,7.01782E-05,-0.003287793,-0.322075387
name_15,A,2,-0.001291984,-5.30593E-06,6.02779E-07,-0.436257652,2.379508454,0.000146142,-0.002830399,-0.329456008
name_15,A,3,-0.000771531,-2.66254E-06,8.2981E-07,-0.78574981,2.452981667,0.000365023,-0.002686564,-0.1967403
name_15,A,4,0.000170593,4.20087E-06,3.67328E-07,0.440926983,2.44146796,0.001378224,-0.000846129,0.043501179
name_15,A,5,0.0002341,3.94212E-06,6.55547E-07,-0.023394772,2.311590029,0.001668079,-0.001255255,0.059695427
name_15,A,6,-0.000341627,-2.97045E-06,5.13934E-07,-0.839967648,2.695194395,0.000664296,-0.001894549,-0.08711491
name_15,A,7,0.000417732,5.36538E-06,7.1713E-07,0.373599888,2.32018072,0.00206081,-0.000996337,0.106521636
name_15,A,8,0.000222244,9.42623E-07,3.46704E-07,-0.509014533,2.320964683,0.001119301,-0.000977835,0.056672205
name_15,A,9,-0.000150614,-1.50773E-06,3.44914E-07,-0.574513848,2.459685533,0.00073295,-0.001372642,-0.038406495
name_15,A,10,-5.47748E-05,1.63422E-06,4.71572E-07,-0.290800815,1.965242587,0.001015763,-0.001323086,-0.013967571
name_15,A,11,-8.87382E-05,1.9235E-06,7.67294E-07,-0.273970882,2.066333907,0.0013326,-0.001720688,-0.022628242
name_15,A,12,0.000473757,5.05689E-06,7.9535E-07,0.139720619,1.947083501,0.002011754,-0.001011537,0.120808123
name_15,A,13,-4.65145E-05,5.61558E-06,7.67906E-07,0.373349466,1.92362035,0.001468133,-0.001342494,-0.011861209
name_15,A,14,0.000907177,1.1199E-05,9.41541E-07,0.783218172,1.973319617,0.002702736,-0.000315497,0.231330219
name_15,A,15,-1.14363E-05,3.46976E-07,1.06389E-07,-0.657496177,2.847982248,0.000529439,-0.000718598,-0.002916247
name_15,C,1,0.000166899,-4.70707E-06,2.09639E-07,-0.435815262,2.59888324,0.000943299,-0.000880643,0.042559298
name_15,C,2,-0.000271213,1.15225E-06,1.00915E-07,-0.199108308,2.543352132,0.000311777,-0.000913473,-0.069159427
name_15,C,3,-0.000310318,5.20447E-06,3.00911E-07,-0.139490156,1.331521593,0.000420347,-0.001158707,-0.079131108
name_15,C,4,0.000898307,8.76137E-06,5.40377E-07,-0.419030929,1.505153111,0.001723211,-0.000277443,0.229068233
name_15,C,5,0.000506166,7.32886E-06,3.87884E-07,-0.274455378,1.453020923,0.001289273,-0.000490742,0.129072265
name_15,C,6,-0.000353164,3.67634E-07,6.54832E-08,-0.168130869,1.965158635,2.18974E-05,-0.00080351,-0.090056808
name_15,C,7,0.001024817,7.41289E-06,4.03493E-07,-0.262651345,1.404104821,0.001763912,-0.000154076,0.26132829
name_15,C,8,0.000182946,9.89805E-07,4.00265E-08,-0.949238186,2.52146773,0.000418211,-0.000253662,0.046651302
name_15,C,9,0.000230304,2.07537E-06,4.47287E-08,-0.446670974,1.982826964,0.000536234,-0.000162762,0.058727545
name_15,C,10,0.000948433,7.2954E-06,3.9185E-07,-0.267216246,1.339654025,0.001672426,-0.00013875,0.241850414
name_15,C,11,0.000963463,1.10074E-05,7.59119E-07,-0.089734933,1.205866728,0.001995132,-0.000151215,0.245683042
name_15,C,12,0.000602596,8.45083E-06,4.68917E-07,0.149148867,1.316432765,0.001516699,-0.000277787,0.153662034
name_15,C,13,0.000644293,1.08465E-05,7.88089E-07,0.056737204,1.258478823,0.001793153,-0.00047461,0.164294644
name_15,C,14,0.000849682,1.51673E-05,1.61105E-06,0.048932352,1.241228221,0.002421128,-0.000735882,0.216668798
name_15,C,15,-0.000161247,3.30766E-09,1.94227E-08,-0.373234858,1.854126348,1.77626E-05,-0.000418078,-0.04111803
name_16,B,1,-0.002356136,-1.41581E-05,1.26119E-06,0.015049157,2.892029729,0.000650364,-0.004271433,-0.600814728
name_16,B,2,-0.000282565,-2.67491E-06,9.22269E-08,-0.302657987,2.309236995,0.000227404,-0.000891026,-0.07205406
name_16,B,3,-0.001020884,-7.37786E-06,4.04611E-07,0.16705625,1.723402473,0.000166742,-0.001999955,-0.260325296
name_16,B,4,0.000594148,4.3925E-06,1.67285E-07,-0.676566675,2.454852993,0.001304789,-0.000227276,0.151507669
name_16,B,5,-0.000261928,-4.14543E-07,4.25737E-08,-0.10011053,2.241572402,9.95233E-05,-0.000668677,-0.066791729
name_16,B,6,-0.002417923,-7.25739E-06,7.20009E-07,1.59506416,5.497260276,0.000485309,-0.003366539,-0.616570396
name_16,B,7,0.000243218,4.02747E-06,1.375E-07,0.051144329,2.771364431,0.001149159,-0.00046262,0.062020518
name_16,B,8,-0.001442059,-4.99477E-07,3.37897E-07,1.429899793,4.679213286,0.00058406,-0.002176207,-0.36772503
name_16,B,9,-0.002011583,-6.83934E-06,5.03936E-07,1.646434041,5.441802102,0.000442322,-0.00270114,-0.512953708
name_16,B,10,0.000558204,5.54086E-06,3.03683E-07,0.08422066,2.586369999,0.001801384,-0.000465645,0.142342019
name_16,B,11,0.000341389,4.46609E-06,2.08629E-07,0.348781561,2.202320309,0.001307176,-0.000409372,0.087054242
name_16,B,12,-0.001019477,-5.81849E-06,2.08011E-07,0.633294132,2.648398365,0.000148507,-0.001648245,-0.259966588
name_16,B,13,0.000624184,7.96773E-06,5.13037E-07,0.207755743,2.177506803,0.002141561,-0.00058849,0.159166926
name_16,B,14,-0.001492559,-9.36123E-06,6.00847E-07,-0.170540116,2.558083871,0.000504423,-0.002853175,-0.380602621
name_16,B,15,-0.004164069,-2.47768E-05,3.78985E-06,0.54749223,2.400396604,0.00088168,-0.006784548,-1.061837631
name_16,C,1,-0.000877357,-1.26531E-05,9.88125E-07,-0.132131543,1.987395462,0.000637209,-0.00258271,-0.223725961
name_16,C,2,-0.001079069,-1.1733E-05,9.48427E-07,0.010238204,1.638317355,0.000314281,-0.002670358,-0.275162555
name_16,C,3,-0.002768385,-2.12481E-05,3.12643E-06,-0.070563797,1.711010291,0.000252047,-0.005683008,-0.705938293
name_16,C,4,-0.000280496,-8.43594E-07,1.3144E-07,-0.736354164,2.46728247,0.000223358,-0.001057149,-0.071526415
name_16,C,5,-0.001812637,-1.35233E-05,1.09474E-06,0.332166576,1.762157645,9.33484E-05,-0.003294413,-0.462222406
name_16,C,6,-0.001674284,-1.0152E-05,7.41061E-07,0.147807541,2.250777253,6.01421E-05,-0.003123672,-0.426942323
name_16,C,7,-0.000864938,-6.62197E-06,3.04975E-07,0.181243338,1.65670014,0.000145902,-0.00171447,-0.220559271
name_16,C,8,-0.000656726,-4.65205E-06,2.26319E-07,-0.361855211,1.730787772,0.000155468,-0.00153838,-0.167465024
name_16,C,9,-0.001299747,-1.09494E-05,7.56886E-07,-0.095705926,1.84088134,0.000142633,-0.002803449,-0.331435522
name_16,C,10,-0.000369084,-1.75547E-06,1.57787E-07,-0.461470869,2.020299884,0.000193098,-0.001160253,-0.094116432
name_16,C,11,0.000112092,1.82286E-06,1.64988E-07,-0.510105247,2.540958357,0.000766458,-0.000744406,0.028583479
name_16,C,12,-0.000487358,-4.29395E-06,1.27816E-07,-0.970592064,3.165689112,5.79733E-05,-0.001297632,-0.124276306
name_16,C,13,0.000140875,2.34567E-06,3.39044E-07,-0.557855668,2.559042653,0.001150927,-0.001101305,0.035923019
name_16,C,14,-0.000455762,-8.10701E-06,7.96977E-07,0.406096844,1.975816699,0.001214724,-0.001738301,-0.116219227
name_16,C,15,-0.000768636,-1.65461E-05,2.28229E-06,0.080385115,1.91570458,0.001795633,-0.003206664,-0.196002081
name_16,A,1,0.000887566,-3.93313E-07,4.19101E-07,0.439699319,2.281781963,0.002118585,-0.000376619,0.226329349
name_16,A,2,-0.000350086,-4.82005E-06,1.56953E-07,-0.354344034,1.383139166,9.45218E-05,-0.000933315,-0.089272057
name_16,A,3,-0.001933209,-1.40958E-05,1.25459E-06,0.290607431,1.981888245,0.000139942,-0.003528981,-0.492968258
name_16,A,4,0.000740071,3.05385E-06,1.74575E-07,-0.345361231,1.693866985,0.001318286,-0.000146083,0.188717984
name_16,A,5,-0.000346241,-2.30379E-06,4.77325E-08,0.627678292,2.46041461,0.00013302,-0.000646509,-0.088291545
name_16,A,6,-0.000841804,-1.08716E-06,1.19722E-07,0.855586175,3.83404572,5.20481E-05,-0.001424772,-0.214660083
name_16,A,7,0.000557554,3.353E-06,1.8314E-07,-0.134532573,1.476655483,0.001189702,-0.000191573,0.142176348
name_16,A,8,-7.16805E-05,2.07564E-06,1.52653E-07,-0.385433824,2.228641342,0.000516637,-0.00085423,-0.018278531
name_16,A,9,-0.000912654,-3.84407E-06,2.14702E-07,0.950725951,3.008333818,0.000144843,-0.001523525,-0.232726698
name_16,A,10,0.000864283,2.61556E-06,3.39829E-07,-0.285905777,2.036099306,0.001750444,-0.00055205,0.220392124
name_16,A,11,0.001173037,6.6919E-06,5.67649E-07,-0.38014775,1.51149631,0.00213788,-8.29784E-05,0.299124467
name_16,A,12,-0.001071075,-5.96299E-06,3.45409E-07,1.194038692,3.016720431,0.000267214,-0.001615238,-0.273124179
name_16,A,13,0.001392219,9.29745E-06,1.06974E-06,-0.448349311,1.539725825,0.002645366,-0.000243191,0.355015875
name_16,A,14,0.001100553,4.45256E-06,6.5165E-07,-0.374971982,1.534482608,0.002146309,-0.000442234,0.280640954
name_16,A,15,0.000529496,-2.56018E-06,2.88709E-07,-0.555154371,3.431274372,0.001405711,-0.000990251,0.135021399
name_17,C,1,-0.001311394,-7.43898E-06,4.07137E-07,0.969759339,2.525290023,3.29622E-05,-0.001973435,-0.33440559
name_17,C,2,-0.003733901,-1.09841E-05,1.7122E-06,1.781650571,5.49625511,0.000478273,-0.004898177,-0.952144829
name_17,C,3,-0.001314431,-6.68125E-06,3.35738E-07,0.679361235,2.879533599,8.03192E-05,-0.002213509,-0.335179931
name_17,C,4,-0.000524975,-3.93411E-06,1.19328E-07,0.262643934,2.16893265,9.40771E-05,-0.001122893,-0.133868596
name_17,C,5,-0.00097597,-4.70121E-06,1.66755E-07,0.953759893,3.320792089,4.13107E-05,-0.001545536,-0.248872452
name_17,C,6,-0.000661303,-2.22757E-06,9.53039E-08,0.50154282,2.781894737,1.28142E-05,-0.001201774,-0.168632278
name_17,C,7,-0.000603148,-5.76215E-06,2.19489E-07,0.605910876,2.283105263,0.00030183,-0.001412701,-0.153802616
name_17,C,8,-0.000566591,-8.30487E-06,4.6217E-07,0.590255874,2.094860234,0.000727948,-0.001661313,-0.144480656
name_17,C,9,-0.000757754,-4.23353E-06,1.47225E-07,0.175238241,3.040676981,1.31758E-05,-0.001669278,-0.193227231
name_17,C,10,-0.000603598,-7.35077E-06,3.3592E-07,0.305510599,2.277557816,0.000465087,-0.001740221,-0.153917489
name_17,C,11,-0.000693097,-2.24752E-06,8.84776E-08,0.780498902,3.291923324,2.38233E-05,-0.001250706,-0.17673979
name_17,C,12,-0.000539517,-3.28847E-06,1.01653E-07,-0.064104667,2.417457029,3.53568E-05,-0.00131043,-0.137576832
name_17,C,13,-0.001173854,-5.89652E-06,2.64112E-07,0.854861471,3.18433088,3.53291E-05,-0.002009905,-0.299332851
name_17,C,14,-0.002796181,-1.04016E-05,9.61449E-07,1.787696929,5.51679679,0.000349742,-0.003912744,-0.713026177
name_17,C,15,-0.002998314,-1.2487E-05,1.22838E-06,1.581501049,4.687732392,0.000265932,-0.004161487,-0.764570101
name_17,A,1,9.45281E-05,-3.44542E-07,1.91122E-07,-0.213122248,1.651934236,0.000768867,-0.000599879,0.02410467
name_17,A,2,0.001380282,1.82349E-05,2.94115E-06,1.249678874,2.883561442,0.005025604,-0.00034741,0.351971834
name_17,A,3,-8.00774E-06,4.77873E-06,5.45561E-07,0.778247485,2.272133125,0.001444606,-0.000805873,-0.002041973
name_17,A,4,0.000690247,8.45241E-06,6.56435E-07,1.113840234,2.57088926,0.002333524,-0.000298161,0.176012996
name_17,A,5,0.000725351,1.00762E-05,6.94733E-07,0.789585513,1.8851672,0.002190004,-0.000185697,0.184964622
name_17,A,6,0.001175291,8.94126E-06,5.19952E-07,0.634003181,2.670958458,0.002596306,-0.00018733,0.299699097
name_17,A,7,0.000259619,6.70052E-06,4.29609E-07,0.884707244,2.103343199,0.001485024,-0.000318245,0.066202923
name_17,A,8,0.000859128,1.03267E-05,6.95319E-07,0.738521475,1.879366361,0.002285075,-0.000209665,0.219077562
name_17,A,9,0.000524963,6.13481E-06,3.48362E-07,1.263259848,3.010627916,0.001795705,-0.00012546,0.133865619
name_17,A,10,-0.000282478,4.48919E-06,4.00032E-07,0.62750282,1.913178314,0.000870495,-0.000915315,-0.072031878
name_17,A,11,0.000238882,6.46678E-06,3.25247E-07,0.940460205,2.326597476,0.001322151,-0.000385595,0.060914897
name_17,A,12,0.00025836,4.68236E-06,3.06302E-07,1.201286946,3.114668592,0.001465377,-0.000394229,0.065881887
name_17,A,13,-0.00011619,6.57658E-06,6.57384E-07,0.867742052,2.278259969,0.001463655,-0.000887788,-0.029628466
name_17,A,14,0.00081539,1.22303E-05,9.33276E-07,0.687766822,2.031795669,0.002590858,-0.000207262,0.207924329
name_17,A,15,0.000990583,7.5856E-06,3.89141E-07,0.529287455,2.381989942,0.002144241,-1.51129E-05,0.252598586
name_17,B,1,0.001181527,2.8222E-06,1.56249E-07,-2.022329752,6.705103058,0.001568197,-0.000283075,0.301289311
name_17,B,2,0.000207005,2.76901E-06,3.72135E-07,0.131536901,1.416896567,0.001330516,-0.000584546,0.052786289
name_17,B,3,-0.00058932,-1.07474E-06,1.12279E-07,0.840476329,2.758786968,0.000181868,-0.001027927,-0.150276521
name_17,B,4,0.000191548,3.48557E-06,1.51388E-07,0.429832717,1.939136307,0.000859836,-0.00038909,0.048844835
name_17,B,5,0.000132921,2.61747E-06,7.36019E-08,0.704400452,2.243159895,0.000768139,-0.000270661,0.033894844
name_17,B,6,0.000841496,6.1591E-06,2.17676E-07,0.159698203,2.167041522,0.001698356,-0.000284295,0.21458158
name_17,B,7,-0.000105349,1.72696E-06,8.49356E-08,-0.049096508,1.565279485,0.00030576,-0.000585411,-0.026863906
name_17,B,8,0.001261076,8.3609E-06,4.48542E-07,-0.312525369,2.03430967,0.002167424,-0.000397375,0.321574422
name_17,B,9,0.000312859,4.80392E-06,1.84866E-07,0.50382488,2.077181614,0.001050437,-0.000321774,0.07977917
name_17,B,10,-0.000243533,2.92285E-06,1.85229E-07,-0.109437536,1.779064677,0.000380137,-0.000986076,-0.062100896
name_17,B,11,0.000305622,5.46225E-06,2.51087E-07,0.5455727,1.779564562,0.001153137,-0.000329552,0.077933669
name_17,B,12,0.000286783,1.91281E-06,3.63556E-08,0.32084732,1.922403742,0.000610451,-8.129E-05,0.073129716
name_17,B,13,0.000231618,4.51756E-06,2.1249E-07,0.451364963,1.769979711,0.000971356,-0.000401659,0.059062504
name_17,B,14,0.000939443,5.58403E-06,2.03415E-07,-0.194584769,2.693887519,0.001747083,-0.0003147,0.239557887
name_17,B,15,0.0010465,3.46692E-06,1.24607E-07,-1.990373972,6.298266603,0.001348606,-0.000182652,0.26685742
name_19,A,1,0.002034219,2.09377E-05,2.45372E-06,0.013389757,1.461383713,0.004114772,-7.01278E-05,0.518725912
name_19,A,2,0.002181803,2.30598E-05,3.2015E-06,0.067256012,1.250204535,0.004410128,-7.25535E-05,0.556359763
name_19,A,3,0.000979277,1.41429E-05,1.32442E-06,0.340405357,1.334826565,0.002699741,-0.000171179,0.249715683
name_19,A,4,0.000451501,6.48655E-06,4.38133E-07,0.277199627,1.642032421,0.001535764,-0.000457258,0.115132867
name_19,A,5,0.000925764,1.15227E-05,8.7915E-07,0.090097629,1.305195324,0.002246882,-0.000241527,0.236069859
name_19,A,6,0.00102145,1.48234E-05,1.43198E-06,0.283490212,1.28468554,0.002716149,-0.000307597,0.260469649
name_19,A,7,0.000620137,8.38496E-06,4.88967E-07,0.069115671,1.255025628,0.001589467,-0.000209492,0.158134868
name_19,A,8,0.000666958,9.76108E-06,6.34556E-07,0.226731665,1.242247245,0.001784218,-0.000215762,0.170074192
name_19,A,9,0.001465531,1.74228E-05,1.86437E-06,0.034060616,1.237665333,0.003190541,-0.000178904,0.373710306
name_19,A,10,0.001061648,1.28986E-05,1.04058E-06,0.027136603,1.209408197,0.00232636,-0.000185827,0.270720224
name_19,A,11,0.001365962,1.48259E-05,1.37994E-06,-0.047105463,1.219654488,0.002817032,-3.54211E-05,0.348320429
name_19,A,12,0.001285943,1.44547E-05,1.24928E-06,0.181312653,1.318298797,0.002837043,-6.2652E-06,0.327915528
name_19,A,13,0.001113777,1.24767E-05,1.0154E-06,0.009111407,1.289752697,0.002494185,-0.000205394,0.284013215
name_19,A,14,0.001134978,1.34359E-05,1.16712E-06,0.151135762,1.256329111,0.002648391,-6.82746E-05,0.289419437
name_19,A,15,0.001041316,1.3822E-05,1.26337E-06,0.26955442,1.31257686,0.002690319,-0.000131934,0.265535681
name_19,B,1,0.000184105,2.6076E-06,1.43767E-07,-0.414370594,1.967076148,0.000792419,-0.000559844,0.046946804
name_19,B,2,0.001265923,1.03204E-05,3.7035E-06,-0.031203596,2.243787706,0.004816771,-0.002191309,0.322810318
name_19,B,3,0.002456989,1.82399E-05,1.03025E-05,-0.104242469,2.002704198,0.008013986,-0.003216725,0.626532306
name_19,B,4,0.000220503,1.05693E-06,2.4958E-07,-0.069516162,1.53953342,0.000985656,-0.000520987,0.056228241
name_19,B,5,0.000171633,-1.80661E-06,1.5197E-07,-0.080659748,2.536253324,0.000916941,-0.000591822,0.043766293
name_19,B,6,0.000284397,-2.96865E-06,2.66569E-07,-0.146789503,2.611388996,0.00125658,-0.00073773,0.072521354
name_19,B,7,2.77166E-05,2.81627E-07,1.64486E-07,-0.072586283,1.7462406,0.000687502,-0.000606815,0.00706772
name_19,B,8,-3.0394E-05,-1.42621E-06,1.52166E-07,-0.154743601,2.365171646,0.000684456,-0.000791411,-0.007750465
name_19,B,9,0.000147339,-2.14177E-06,2.4135E-07,-0.149378399,2.565726437,0.001067855,-0.00083838,0.037571354
name_19,B,10,3.93479E-05,8.14652E-07,9.31918E-08,-0.21697885,1.946246226,0.000509532,-0.000536838,0.010033714
name_19,B,11,3.24579E-05,-2.50682E-07,9.5383E-08,0.069892253,2.045321864,0.00061099,-0.000477867,0.008276763
name_19,B,12,-0.000102026,1.55005E-07,1.50279E-07,-0.339014101,1.838282646,0.000469106,-0.000755207,-0.026016731
name_19,B,13,5.86878E-05,1.72154E-07,1.12035E-07,0.071055048,2.007093393,0.00068231,-0.000482866,0.014965395
name_19,B,14,-0.000539146,-3.4022E-06,2.16321E-07,-0.786781843,2.678392047,6.60211E-05,-0.001571526,-0.137482316
name_19,B,15,0.000197227,-3.36553E-07,1.27162E-07,-0.37750347,2.030685034,0.000710286,-0.000515139,0.050292987
name_19,C,1,-3.77123E-05,-3.54227E-06,1.70288E-07,-0.041352431,1.589856279,0.000576517,-0.000686802,-0.009616641
name_19,C,2,0.002076111,5.16406E-06,5.64683E-07,-1.680897636,5.080496999,0.002929197,-0.000121878,0.529408272
name_19,C,3,0.001255832,2.70831E-06,2.14063E-07,-1.449846212,4.775573763,0.001849546,-0.000104078,0.32023725
name_19,C,4,5.739E-06,1.01642E-06,3.03861E-08,-0.295519632,2.076206154,0.000263833,-0.000317056,0.001463444
name_19,C,5,0.000240999,3.33387E-06,1.10282E-07,-0.728836724,2.166980355,0.000653157,-0.000415164,0.061454768
name_19,C,6,-0.000123107,-1.18882E-07,8.77825E-08,0.668884892,2.596508541,0.000507766,-0.000588358,-0.031392186
name_19,C,7,-0.000126568,6.05019E-07,1.91628E-08,-0.181643582,1.997139344,0.000129424,-0.000373388,-0.03227496
name_19,C,8,-0.000343638,-1.92762E-06,4.92008E-08,0.383066099,1.765091535,0.000107591,-0.000610507,-0.087627618
name_19,C,9,-0.000669002,-3.20191E-06,1.16196E-07,0.448515406,2.00685137,0.000100848,-0.001114222,-0.170595448
name_19,C,10,-0.000302521,-1.42011E-06,2.03103E-08,0.446558887,2.443435483,7.0214E-05,-0.000504789,-0.077142735
name_19,C,11,-0.000556725,-3.12508E-06,7.20889E-08,0.192843248,2.474085961,0.000136173,-0.000960622,-0.141964978
name_19,C,12,-0.000616761,-2.30721E-06,5.38879E-08,1.164298159,4.416267783,8.44441E-05,-0.00093414,-0.157273954
name_19,C,13,-0.000629908,-4.20279E-06,1.2809E-07,-0.18655262,2.113259257,9.16228E-05,-0.001245936,-0.16062659
name_19,C,14,-0.000906832,-7.23114E-06,3.19837E-07,-0.312230559,1.83817154,0.00011473,-0.001832803,-0.231242115
name_19,C,15,-0.000811539,-6.18242E-06,2.59596E-07,-0.442007897,2.374564855,1.85469E-05,-0.001786423,-0.206942353
k1,A,1,-0.001834268,-7.07213E-06,5.03322E-07,1.227640605,3.98052347,0.000342397,-0.002618384,-0.46773826
k1,A,2,-0.000211334,8.52394E-07,6.92837E-08,0.66327898,3.189068418,0.000561112,-0.000614147,-0.053890086
k1,A,3,0.000253483,3.69285E-06,1.54385E-07,0.135602872,1.703668319,0.000882069,-0.000391059,0.064638119
k1,A,4,0.00018665,4.88997E-06,2.52632E-07,1.289751788,3.562510862,0.001507988,-0.000317832,0.047595624
k1,A,5,5.41242E-05,4.52756E-06,2.45508E-07,0.662602947,2.367867753,0.001056424,-0.00058623,0.013801671
k1,A,6,0.000242635,6.48454E-06,2.82305E-07,0.391657636,2.099584551,0.001189418,-0.000515737,0.061872048
k1,A,7,0.000282345,4.06776E-06,2.01105E-07,0.471767576,1.843992787,0.001170407,-0.00030062,0.071998092
k1,A,8,0.000499256,7.89051E-06,4.11362E-07,0.584324616,2.325935313,0.001793514,-0.000322957,0.127310318
k1,A,9,0.000529376,5.54051E-06,1.98501E-07,0.026772005,1.775639905,0.001363874,-7.72861E-05,0.134990937
k1,A,10,0.00050543,5.36008E-06,2.01155E-07,0.435841399,1.990295563,0.001324657,-9.84572E-05,0.12888469
k1,A,11,0.001010739,1.04599E-05,6.95272E-07,0.555041112,2.351272363,0.002701643,-3.41608E-05,0.257738336
k1,A,12,0.000187151,5.05556E-06,2.10519E-07,0.191509767,2.002961879,0.000969338,-0.000536941,0.04772338
k1,A,13,0.001382135,1.37122E-05,1.16434E-06,0.368912708,2.038816187,0.003330868,-0.000186358,0.352444469
k1,A,14,0.000770626,8.1981E-06,5.78453E-07,0.70670175,2.262542604,0.002330925,-6.28178E-05,0.196509637
k1,A,15,0.0006042,5.73854E-06,2.41086E-07,0.607647919,2.280406793,0.001597665,-4.50459E-05,0.154070912
k1,B,1,-0.000563396,-1.08501E-06,1.34399E-07,-0.374292776,2.13041239,9.22453E-05,-0.001249482,-0.143665989
k1,B,2,-0.00035687,-1.32838E-06,3.25218E-08,0.216723691,2.241588811,0.000123286,-0.000647351,-0.091001822
k1,B,3,7.7054E-05,5.98243E-07,4.29821E-08,0.659597967,2.25654584,0.000517895,-0.000204562,0.019648782
k1,B,4,-0.000654766,-1.08933E-06,7.03288E-08,0.876865447,3.753907065,0.000210422,-0.001008169,-0.166965383
k1,B,5,-0.001139719,-5.57678E-07,2.21808E-07,0.961545392,3.336577913,0.000316071,-0.001710177,-0.29062828
k1,B,6,-0.000730521,-2.52356E-06,1.53556E-07,0.023598648,2.114097245,0.000262426,-0.001358833,-0.18628277
k1,B,7,-0.000336787,1.63546E-06,9.56807E-08,0.575728368,2.059552045,0.000258457,-0.0007532,-0.085880708
k1,B,8,-0.000961395,-2.34171E-06,1.79533E-07,0.331475451,3.3545107,0.000319557,-0.001679919,-0.245155661
k1,B,9,-7.19469E-05,-4.72541E-07,4.78921E-08,-0.058812762,1.660766877,0.000291613,-0.00038919,-0.018346448
k1,B,10,0.000226703,4.91921E-06,1.95692E-07,0.883419067,2.331433893,0.001128588,-0.000277113,0.057809269
k1,B,11,0.00010428,5.90173E-06,3.00694E-07,0.712104164,1.847108123,0.00110215,-0.000418498,0.026591523
k1,B,12,-1.24026E-05,3.37933E-06,1.32765E-07,0.86663332,2.266910583,0.000734043,-0.000351852,-0.003162655
k1,B,13,0.000444243,7.34568E-06,4.12766E-07,0.821467037,2.267941457,0.001735572,-0.000315861,0.113281848
k1,B,14,-0.000455823,2.36127E-06,1.56459E-07,0.432625461,1.696529841,0.000240242,-0.000926681,-0.116234917
k1,B,15,-0.000242237,1.31496E-06,6.47237E-08,0.586952715,1.971457495,0.000244526,-0.0005569,-0.06177035
k1,C,1,0.000593429,6.98914E-06,2.93304E-07,-0.358953619,1.839933103,0.001303541,-0.000365633,0.151324409
k1,C,2,0.000350692,5.01554E-06,1.48606E-07,-0.052371746,1.47197424,0.000952855,-0.000184708,0.089426448
k1,C,3,0.000581617,7.75442E-06,3.63173E-07,0.009604458,1.466723335,0.001599837,-0.00024246,0.148312462
k1,C,4,0.00011821,3.93348E-06,1.12605E-07,-0.449099835,1.708851167,0.00048956,-0.000467375,0.030143632
k1,C,5,-9.30341E-06,6.05284E-06,3.24626E-07,-0.953952898,2.579299628,0.000689086,-0.001238833,-0.00237237
k1,C,6,-0.000259346,8.4683E-06,6.16278E-07,-0.496585579,2.046129725,0.000884937,-0.00175588,-0.066133147
k1,C,7,0.00051973,5.59559E-06,2.13439E-07,-0.42484614,1.383917327,0.001103247,-0.000179312,0.132531035
k1,C,8,0.000181603,1.07622E-05,8.09025E-07,-0.246140485,1.634978904,0.001297171,-0.001282659,0.046308882
k1,C,9,0.000923318,1.60043E-05,1.55199E-06,0.072942143,1.518461948,0.002863679,-0.000745981,0.235445999
k1,C,10,0.000346149,5.92903E-06,2.20179E-07,-0.195185105,1.472727726,0.000967769,-0.000369506,0.08826804
k1,C,11,0.000634572,1.31418E-05,1.1162E-06,-0.19432201,1.48986823,0.002086185,-0.000984161,0.16181595
k1,C,12,0.000467713,9.43153E-06,5.54809E-07,0.242774867,1.612940366,0.001720749,-0.000493804,0.119266916
k1,C,13,0.000322183,7.80176E-06,4.29631E-07,-0.366673085,1.544529124,0.001026688,-0.000757269,0.082156783
k1,C,14,0.000482666,7.69031E-06,3.55188E-07,0.282413912,1.607129929,0.001410353,-0.000253445,0.123079719
k1,C,15,-0.00022171,4.71872E-06,2.06173E-07,0.052994423,1.693137027,0.000454445,-0.000924352,-0.056536028
name_20,A,1,-0.002155332,-1.09993E-05,8.69304E-07,0.737507521,3.011203419,0.000282537,-0.003433976,-0.549609723
name_20,A,2,-0.002986263,-1.93181E-05,2.26595E-06,0.64696406,2.115983745,6.99947E-05,-0.004614082,-0.761497121
name_20,A,3,-0.001439596,-1.01251E-05,7.39079E-07,0.240145249,1.928257684,2.53564E-05,-0.002768554,-0.367096974
name_20,A,4,-0.002456757,-1.61801E-05,1.60868E-06,0.581796178,2.077103577,5.66522E-05,-0.004133506,-0.626473016
name_20,A,5,-0.001659164,-8.9087E-06,5.50455E-07,0.849532659,2.693897834,0.000118265,-0.002470434,-0.423086886
name_20,A,6,-0.001883876,-1.15711E-05,8.96853E-07,0.625700923,2.160381917,0.000131773,-0.003090767,-0.480388421
name_20,A,7,-0.002509528,-1.44273E-05,1.50656E-06,0.782541957,2.230403489,0.000123855,-0.003832771,-0.639929617
name_20,A,8,-0.002412243,-1.38109E-05,1.24711E-06,0.880258554,2.453894846,0.000200169,-0.003463362,-0.615121887
name_20,A,9,-0.000447948,-1.12951E-06,4.36947E-08,0.561602915,2.531610532,1.76819E-05,-0.000786227,-0.11422683
name_20,A,10,-0.00250322,-1.33554E-05,1.44609E-06,0.84065354,2.413049145,5.83088E-05,-0.003914018,-0.638321055
name_20,A,11,-0.001111508,-3.40852E-06,1.92931E-07,1.259124326,3.735699154,3.73354E-05,-0.001626803,-0.283434562
name_20,A,12,-0.000604736,-2.92638E-06,7.01127E-08,0.574246849,3.136693114,2.10629E-05,-0.001027088,-0.154207683
name_20,A,13,-0.001346706,-8.6733E-06,4.8541E-07,0.570106721,2.225842493,7.17902E-05,-0.002258817,-0.343410045
name_20,A,14,-0.001226201,-6.62822E-06,3.13735E-07,1.004534958,3.02103425,3.94397E-05,-0.001890338,-0.312681143
name_20,A,15,-0.001429968,-9.04158E-06,4.9627E-07,0.684344437,2.585011733,3.38418E-05,-0.002416477,-0.364641718
name_20,C,1,-0.00106559,-6.97813E-06,3.08532E-07,0.414555535,1.935026704,0.000144653,-0.001778873,-0.271725434
name_20,C,2,-0.000455958,5.57981E-06,3.75218E-07,-0.344129328,2.42984291,0.000908382,-0.001748375,-0.116269348
name_20,C,3,0.000256822,7.46124E-06,5.58019E-07,0.11578988,1.618056324,0.001358633,-0.000912295,0.065489493
name_20,C,4,0.000814297,9.70212E-06,7.54557E-07,-0.752556201,2.533097703,0.00188579,-0.001082896,0.207645694
name_20,C,5,-5.04453E-05,6.03341E-06,2.95494E-07,-0.115471729,2.143787544,0.000902689,-0.001048239,-0.012863545
name_20,C,6,-0.000432416,3.76191E-06,3.15622E-07,0.073335807,1.368577433,0.000583621,-0.001161835,-0.110266046
name_20,C,7,0.000336365,1.12797E-05,1.00555E-06,-0.515577345,2.456739848,0.001907695,-0.001736633,0.0857731
name_20,C,8,-0.001064966,-1.145E-06,1.48834E-07,1.390751346,6.150068083,0.000453909,-0.001861635,-0.271566356
name_20,C,9,-0.00040254,-1.50428E-06,3.09043E-08,0.707422382,3.111804904,1.75457E-05,-0.000669679,-0.102647811
name_20,C,10,-0.00071506,5.1323E-06,4.73757E-07,-0.14531383,1.678816774,0.000908448,-0.001810595,-0.182340201
name_20,C,11,-0.00025592,1.22685E-06,6.01023E-08,0.489139324,1.997567806,0.000226526,-0.000564962,-0.065259685
name_20,C,12,-0.000134103,2.09606E-06,4.3871E-08,-0.214354001,1.674569866,0.000244721,-0.000474485,-0.034196163
name_20,C,13,0.000624624,1.1286E-05,8.17294E-07,0.039355617,1.918184089,0.002177419,-0.000947029,0.159279157
name_20,C,14,0.000239698,6.54598E-06,2.91362E-07,0.360818282,2.064970916,0.001275318,-0.000589289,0.061122935
name_20,C,15,0.000500729,6.79663E-06,2.8388E-07,0.145181586,1.913281329,0.001434556,-0.000387472,0.127685945
name_20,B,1,-0.000585986,-1.88066E-06,9.33645E-08,0.049929144,2.366970205,0.000197992,-0.001204089,-0.14942632
name_20,B,2,-0.000541761,3.82534E-06,2.82375E-07,-0.200109869,1.68535838,0.00049106,-0.001392894,-0.138149083
name_20,B,3,-0.000266417,9.59861E-06,7.45716E-07,-0.021310916,1.63167723,0.001020051,-0.001645329,-0.067936374
name_20,B,4,-0.000477053,1.29737E-05,1.46485E-06,-0.551599406,1.984212718,0.001167458,-0.002768626,-0.121648513
name_20,B,5,-0.001131196,4.85343E-06,5.80926E-07,-0.031642021,2.420946073,0.000976865,-0.002522613,-0.288455037
name_20,B,6,-0.001357017,6.84637E-06,9.13193E-07,-0.139701846,1.79097105,0.000626716,-0.002967173,-0.346039412
name_20,B,7,-0.000587377,1.93142E-05,3.18375E-06,-0.521504851,2.032660843,0.001818844,-0.004068479,-0.149781152
name_20,B,8,-0.002771687,7.35241E-07,1.10158E-06,1.231984504,5.469629449,0.001264826,-0.004307279,-0.70678024
name_20,B,9,-0.000474723,-2.73798E-06,5.61839E-08,0.62315938,3.139064567,3.50878E-05,-0.000925974,-0.121054283
name_20,B,10,-0.002447482,1.15242E-05,2.51788E-06,-0.286043657,2.446669961,0.001740813,-0.005440099,-0.624107821
name_20,B,11,-0.001000692,-6.0082E-06,2.25212E-07,0.180418607,3.061293662,8.15214E-05,-0.001990007,-0.255176397
name_20,B,12,-0.000643624,-1.77488E-06,4.67834E-08,1.737716536,7.529008992,0.000228501,-0.001008723,-0.164124179
name_20,B,13,-0.000768955,3.77354E-06,4.37711E-07,-0.65247438,2.393324435,0.000660977,-0.002090295,-0.196083461
name_20,B,14,-0.000293005,3.77783E-06,1.70967E-07,-0.443581641,1.546439479,0.000333604,-0.000976658,-0.074716272
name_20,B,15,-0.000406089,5.40338E-06,3.72506E-07,-0.812508557,2.059047897,0.000415758,-0.001582635,-0.103552642
name_21,B,1,-0.000697534,-9.74137E-06,5.88561E-07,-0.647513094,1.978170469,0.000185216,-0.002158869,-0.177871226
name_21,B,2,-0.000274874,-4.67622E-06,1.72546E-07,-0.941800986,2.653916495,0.000210402,-0.001159705,-0.07009283
name_21,B,3,0.000172606,1.88429E-06,2.36705E-08,0.751524812,3.188923412,0.000526689,-6.38307E-05,0.044014576
name_21,B,4,-0.000309631,-4.79341E-06,1.94314E-07,-0.659169717,2.190139414,0.000237758,-0.001185867,-0.078955856
name_21,B,5,2.56822E-05,-6.86473E-07,3.17721E-08,0.832741097,2.780813822,0.000433022,-0.000215942,0.00654895
name_21,B,6,0.000261451,5.17272E-07,3.68725E-08,-0.466459114,2.029489648,0.000519754,-0.000129428,0.066669909
name_21,B,7,-6.2558E-05,-2.2648E-06,1.06615E-07,0.108371934,2.048530382,0.000523367,-0.000580748,-0.015952282
name_21,B,8,0.000375214,2.32469E-06,4.00957E-08,-0.581056988,2.119581703,0.000764151,-0.000134358,0.095679626
name_21,B,9,7.19451E-05,1.0027E-06,1.4083E-08,0.468780741,4.381847918,0.000472438,-0.00015719,0.018346012
name_21,B,10,1.53767E-06,-5.51665E-07,1.85098E-08,0.379253701,2.284049477,0.000277836,-0.000213856,0.000392106
name_21,B,11,0.000365161,2.09762E-06,5.19205E-08,-0.359662352,1.786105254,0.000708789,-6.12326E-05,0.09311605
name_21,B,12,0.0002956,1.84765E-06,3.97829E-08,-0.450557707,1.811759419,0.000589838,-8.95254E-05,0.075378089
name_21,B,13,6.29923E-05,-1.33117E-06,5.31259E-08,0.219535657,2.371432875,0.000498175,-0.000336654,0.016063049
name_21,B,14,0.000467787,1.52854E-06,5.99687E-08,-0.185332369,2.228374425,0.000863615,-8.25095E-05,0.119285753
name_21,B,15,0.000361476,-1.44831E-06,1.48152E-07,-0.140186212,1.884650428,0.000934499,-0.00029436,0.092176328
name_21,A,1,-0.001567911,-1.72889E-05,1.79412E-06,0.386313738,2.027556803,0.000830694,-0.003829111,-0.399817355
name_21,A,2,-0.002092131,-1.27964E-05,1.07542E-06,0.546434707,2.899569016,0.000121706,-0.003742708,-0.53349334
name_21,A,3,0.000231142,-8.74797E-08,2.32217E-08,0.113554422,1.764302054,0.000484109,-3.08072E-05,0.058941163
name_21,A,4,-0.000275571,-5.49649E-06,2.7594E-07,-0.215603717,2.105204516,0.000583839,-0.001238771,-0.070270728
name_21,A,5,-0.000926298,-9.23234E-06,5.23096E-07,-0.586136546,2.081924049,1.9323E-05,-0.002255244,-0.23620599
name_21,A,6,0.000358103,-1.50838E-06,1.02715E-07,0.177897719,2.234624799,0.00098953,-0.000249358,0.091316337
name_21,A,7,-0.000879695,-7.18244E-06,3.96113E-07,-0.119343989,2.117319499,0.000179733,-0.001982078,-0.224322329
name_21,A,8,-0.00063474,-8.89409E-06,4.995E-07,-0.52391555,2.249110061,0.000427452,-0.001967043,-0.161858697
name_21,A,9,-0.001061755,-9.6491E-06,5.22959E-07,0.016240664,2.058437016,0.000163351,-0.002218479,-0.270747547
name_21,A,10,-0.001284214,-9.18032E-06,5.38656E-07,0.263276579,2.402812551,0.000115512,-0.00246082,-0.327474647
name_21,A,11,-0.001132611,-9.48134E-06,5.53875E-07,-0.030260576,2.221776279,0.000143751,-0.002444706,-0.288815782
name_21,A,12,-0.0006555,-5.62136E-06,2.17868E-07,-0.326343349,2.344162115,0.000104782,-0.00153547,-0.167152572
name_21,A,13,-0.000990566,-8.25703E-06,5.16441E-07,-0.207237243,2.135728903,0.000170827,-0.002309411,-0.252594261
name_21,A,14,-0.00086518,-7.81351E-06,3.80365E-07,0.005867315,2.214581154,0.000186065,-0.001927154,-0.220621
name_21,A,15,-3.78799E-06,-1.6287E-05,1.96766E-06,-0.113105281,2.141577704,0.00229773,-0.00235176,-0.000965936
name_21,C,1,0.003935754,6.10635E-06,3.45914E-06,-0.398816286,3.217088306,0.007406297,-7.55587E-05,1.003617384
name_21,C,2,-0.000102524,-1.01384E-05,7.47073E-07,0.425217453,1.966062685,0.001544699,-0.001088647,-0.026143564
name_21,C,3,9.89367E-06,2.53811E-07,4.20331E-08,0.07924106,1.924821764,0.000354175,-0.000342593,0.002522886
name_21,C,4,0.001579114,4.46427E-06,4.41346E-07,-1.206629644,3.432888638,0.002357444,-0.000123673,0.40267419
name_21,C,5,-0.001226148,-7.14609E-06,3.92563E-07,0.949928649,2.581578704,3.32631E-05,-0.001953015,-0.312667774
name_21,C,6,0.000888877,1.73226E-06,2.01783E-07,-0.325471612,2.204439028,0.001547922,-2.98856E-05,0.226663537
name_21,C,7,0.000530084,2.11647E-06,8.11499E-08,-0.281530481,2.325674689,0.001023388,-0.000107719,0.135171371
name_21,C,8,0.000112234,2.52587E-07,8.34939E-09,0.306436972,2.812730267,0.000321655,-0.00014458,0.028619623
name_21,C,9,-0.000617322,-6.14431E-06,2.10611E-07,0.030202544,1.694919458,0.000112491,-0.001266231,-0.157416983
name_21,C,10,-0.00024419,-1.20802E-06,2.54901E-08,0.206703212,2.010297179,6.30541E-05,-0.000501004,-0.062268455
name_21,C,11,0.000135954,6.39454E-07,5.7124E-08,0.721271644,3.969311899,0.000904302,-0.000251625,0.034668268
name_21,C,12,-0.000225259,-2.54008E-06,4.91119E-08,0.216209191,1.973401893,0.000191111,-0.000538395,-0.05744116
name_21,C,13,9.37707E-05,6.8913E-08,2.04865E-08,0.308407988,2.593963245,0.000401469,-0.000155605,0.023911531
name_21,C,14,-0.000116444,-2.99336E-06,1.22465E-07,0.054805695,2.159224725,0.000522583,-0.000689048,-0.029693173
name_21,C,15,0.000168624,-1.00914E-05,9.09923E-07,0.413150183,1.84136113,0.001882621,-0.001034907,0.042999148
name_22,B,1,-0.00065986,-3.64686E-06,9.59803E-08,0.164890119,2.76349373,0.000157224,-0.001326659,-0.16826437
name_22,B,2,5.44878E-06,-1.57347E-06,7.32898E-08,0.386098958,1.8527616,0.000474199,-0.000424953,0.001389438
name_22,B,3,9.20001E-05,3.96478E-07,3.32675E-08,0.484097049,1.970795559,0.000453102,-0.000165367,0.023460037
name_22,B,4,-1.03398E-05,-2.94438E-07,2.94734E-08,-0.903162675,2.864586064,0.000244438,-0.000391708,-0.002636659
name_22,B,5,-4.18329E-05,1.75346E-06,3.9004E-08,0.165810653,2.598520422,0.000344738,-0.000405071,-0.010667397
name_22,B,6,0.000330408,2.02934E-06,3.64103E-08,-0.811706108,2.515944981,0.000593194,-5.75789E-05,0.084254006
name_22,B,7,-0.00026932,8.98428E-07,4.44781E-08,0.133430949,1.871053895,0.000210647,-0.000610898,-0.068676559
name_22,B,8,0.000540959,4.13529E-06,9.84048E-08,0.021389526,2.244561923,0.001079304,-6.43633E-05,0.137944621
name_22,B,9,0.000392224,2.73958E-06,4.69466E-08,-0.024708595,2.262672034,0.000754723,-0.000111197,0.100017047
name_22,B,10,-0.000235178,1.7662E-06,7.31713E-08,0.589069848,2.488391613,0.000326839,-0.000636486,-0.059970295
name_22,B,11,0.000273449,4.42218E-06,1.48389E-07,0.134611411,2.969938979,0.001065133,-0.000450949,0.069729414
name_22,B,12,0.000647683,3.53E-06,1.07047E-07,-0.057741167,2.564704013,0.001236796,-0.000139427,0.165159139
name_22,B,13,7.87281E-05,2.37572E-06,6.21931E-08,0.687228396,2.686640482,0.000613301,-0.000278857,0.020075673
name_22,B,14,0.000366635,2.65595E-06,7.47677E-08,-1.178620898,2.969839306,0.000633904,-0.000259344,0.093491825
name_22,B,15,0.00011964,-1.52016E-06,2.55303E-08,-0.880926968,2.793264075,0.000333616,-0.000309624,0.030508101
name_22,C,1,-0.000103156,-3.22139E-06,9.17842E-08,-0.015378783,2.164756351,0.000427071,-0.000634905,-0.026304689
name_22,C,2,-9.18431E-05,2.5481E-06,6.62732E-08,0.435917092,2.109972579,0.000525306,-0.000417081,-0.023419999
name_22,C,3,9.39792E-05,1.06089E-07,3.91582E-08,0.193028803,1.753365503,0.000412655,-0.000235319,0.023964686
name_22,C,4,0.000229315,4.49645E-07,5.88569E-08,0.556303376,2.151568839,0.000735647,-0.000101928,0.058475338
name_22,C,5,-0.000132497,1.56404E-06,6.92519E-08,0.456598508,2.277676535,0.00039023,-0.000544596,-0.033786713
name_22,C,6,-9.91593E-06,-2.57954E-07,2.08443E-08,0.210193518,1.885987546,0.000258811,-0.000237349,-0.002528562
name_22,C,7,-0.000601296,-2.04533E-06,8.4111E-08,0.233548769,2.507706973,0.000150347,-0.001089567,-0.153330509
name_22,C,8,-4.35194E-05,-1.88763E-06,2.69282E-08,0.077092745,2.126407242,0.000233683,-0.000326034,-0.011097439
name_22,C,9,6.87947E-05,-2.02514E-06,4.73133E-08,0.179869482,2.089221349,0.000450166,-0.000295912,0.017542648
name_22,C,10,0.000373905,1.88263E-06,4.43574E-08,0.190540321,2.397192172,0.000771923,-8.6551E-05,0.095345802
name_22,C,11,0.000446325,3.67384E-06,9.7069E-08,0.091136192,1.705689426,0.000955827,-1.65722E-05,0.113812839
name_22,C,12,0.000115704,-7.80134E-07,3.25706E-08,-0.127431901,1.561079223,0.000368812,-0.000180618,0.029504548
name_22,C,13,0.000356698,4.5867E-07,2.38993E-08,-0.512729887,3.610192295,0.000626554,-0.000139903,0.090958044
name_22,C,14,-0.000729794,-2.59236E-06,7.8387E-08,1.27770073,4.061802522,0.00015313,-0.000992584,-0.186097594
name_22,C,15,-0.000260647,-3.68234E-06,1.05018E-07,0.073236484,1.360041429,0.000232192,-0.000678286,-0.066465
name_22,A,1,0.001516203,3.23276E-06,4.38699E-07,-0.673826766,2.849061594,0.00239059,-0.000259096,0.386631678
name_22,A,2,0.002222327,1.30359E-05,1.53961E-06,-0.651091939,1.879830088,0.003552268,-3.7101E-05,0.566693278
name_22,A,3,0.000259318,3.97721E-06,1.44243E-07,-0.025511712,1.398596718,0.000846272,-0.000231971,0.06612613
name_22,A,4,0.000323724,2.63975E-06,8.0699E-08,-0.025142525,1.234971841,0.000695776,-4.43796E-05,0.082549742
name_22,A,5,-8.54559E-05,1.72076E-06,5.81471E-08,-0.602815783,1.956443004,0.000214021,-0.000534242,-0.021791265
name_22,A,6,8.26107E-05,2.51769E-06,4.61245E-08,-0.043159002,1.585545099,0.000423877,-0.000266436,0.021065722
name_22,A,7,0.000494887,4.6146E-06,1.80402E-07,-0.319192974,1.372119675,0.001037046,-0.000123874,0.126196208
name_22,A,8,0.000300442,1.67572E-06,3.00995E-08,-0.088279732,1.829836416,0.000588906,-2.57073E-05,0.076612668
name_22,A,9,0.000251228,2.08332E-06,3.13529E-08,0.097108332,1.583656607,0.000553377,-2.03229E-06,0.064063195
name_22,A,10,0.000826891,5.62969E-06,2.44722E-07,-0.557270579,1.672528685,0.001390843,-1.7883E-05,0.210857254
name_22,A,11,0.000442885,4.60148E-06,1.51454E-07,-0.390210052,1.40383293,0.000880975,-0.000141613,0.112935602
name_22,A,12,0.000697898,2.95257E-06,1.20026E-07,-0.289760143,2.231033002,0.001242162,-0.000104472,0.177963931
name_22,A,13,0.00083372,3.95411E-06,1.58031E-07,-0.682923167,2.242797251,0.001323462,-0.000101372,0.212598575
name_22,A,14,0.001582198,5.72563E-06,7.33027E-07,-0.653575115,2.172351777,0.002625985,-1.31594E-05,0.403460536
name_22,A,15,0.002161226,9.37954E-06,1.01216E-06,-0.959538804,2.591556513,0.003175194,-0.000140179,0.551112621
name_23,C,1,0.001811613,1.45318E-05,1.20534E-06,0.290845772,1.932649783,0.003595251,-0.000201716,0.461961212
name_23,C,2,-0.000978905,2.36839E-06,3.0312E-07,-0.292199347,2.404057634,0.000427089,-0.001934267,-0.249620894
name_23,C,3,-0.000133902,4.48649E-06,2.02199E-07,-0.66329271,1.868611308,0.000356714,-0.000950747,-0.034144928
name_23,C,4,0.002051635,1.3975E-05,1.29615E-06,-0.578962744,1.686616309,0.003358858,-0.000291899,0.523166891
name_23,C,5,0.000741536,9.40217E-06,5.09459E-07,0.034254714,1.369714008,0.001836336,-0.000197943,0.189091651
name_23,C,6,0.000171074,4.2056E-06,1.17451E-07,-0.274657797,1.718783266,0.000666858,-0.00043482,0.043623779
name_23,C,7,0.001392949,1.13822E-05,8.49629E-07,-0.559455576,1.6239996,0.002513374,-2.89082E-05,0.355201869
name_23,C,8,0.000413828,5.0447E-06,1.61901E-07,0.247952949,1.60322695,0.001058574,-0.00014641,0.105526059
name_23,C,9,0.000984376,7.24154E-06,3.17582E-07,-0.446950402,1.727178424,0.001763917,-0.000141956,0.251015948
name_23,C,10,0.0010192,1.07883E-05,7.23742E-07,-0.001805724,1.301229775,0.002193384,-9.59235E-05,0.259896099
name_23,C,11,0.001380865,1.16761E-05,7.75577E-07,-0.238007275,1.499714645,0.002487626,-9.98322E-05,0.352120689
name_23,C,12,-0.000373624,2.18688E-06,2.56721E-07,-0.733280654,2.403294382,0.000247124,-0.00143043,-0.095274094
name_23,C,13,0.001172288,1.2394E-05,9.99684E-07,-0.554876152,1.592236098,0.002201271,-0.000498002,0.29893333
name_23,C,14,-0.001685688,-7.40179E-06,7.11371E-07,1.021305479,2.744011651,1.88257E-05,-0.002753251,-0.429850388
name_23,C,15,-7.45184E-05,-1.43338E-06,5.67373E-08,0.976732701,2.983494366,0.000478511,-0.000389075,-0.019002201
name_23,A,1,2.97974E-05,-1.89216E-06,6.88583E-07,0.825177091,2.483642295,0.001785268,-0.000921996,0.007598348
name_23,A,2,0.000296495,2.34795E-06,5.39238E-07,0.336604502,1.802686831,0.001654177,-0.000798716,0.075606291
name_23,A,3,0.000326261,3.13108E-06,3.62356E-07,0.046409953,1.817954744,0.001370574,-0.000674393,0.083196649
name_23,A,4,0.000398267,4.76865E-06,6.28027E-07,0.01186427,1.59105924,0.001668442,-0.00078582,0.101558088
name_23,A,5,0.000793157,6.39841E-06,4.64498E-07,-0.47133845,1.934754799,0.001664437,-0.00045619,0.202255134
name_23,A,6,0.000163966,2.93549E-06,2.27789E-07,-0.171912364,1.727920023,0.00088772,-0.000678855,0.041811425
name_23,A,7,0.000442599,5.29809E-06,6.3209E-07,-0.003501141,1.601889516,0.00165666,-0.000791597,0.112862715
name_23,A,8,0.000681938,5.50778E-06,3.52112E-07,-0.357271606,1.782977609,0.001448012,-0.000374344,0.17389408
name_23,A,9,0.000400827,5.17984E-06,3.89915E-07,-0.200504372,1.682140254,0.001233219,-0.000689583,0.102210928
name_23,A,10,0.001578884,1.02002E-05,1.12573E-06,-0.082957078,1.601347545,0.003157911,-5.40833E-05,0.402615444
name_23,A,11,0.001090312,7.90506E-06,7.49975E-07,-0.266016236,1.694989505,0.002246081,-0.000337489,0.278029445
name_23,A,12,0.000800254,6.30275E-06,5.88924E-07,-0.147981962,1.674896006,0.001912356,-0.000466481,0.204064785
name_23,A,13,-0.000282148,-5.39659E-07,3.29882E-07,-0.331066954,2.308753868,0.000616123,-0.001467008,-0.071947684
name_23,A,14,0.000274531,5.38676E-06,2.92509E-07,-0.102282281,1.959196939,0.001175398,-0.000678569,0.070005295
name_23,A,15,-0.000342312,-2.73139E-07,2.25868E-07,0.445166729,2.381207832,0.000648681,-0.001109219,-0.087289456
name_23,B,1,-0.000702971,-2.09777E-07,2.45204E-07,0.034176194,1.932310268,0.00030483,-0.001491767,-0.179257592
name_23,B,2,-0.000220372,3.93226E-06,5.01005E-07,-0.433135539,2.806544721,0.001300772,-0.001681918,-0.056194937
name_23,B,3,-0.000189082,2.49405E-06,3.12564E-07,-0.087919991,2.293039366,0.000791836,-0.001214105,-0.048215888
name_23,B,4,-0.0007171,-5.69719E-07,4.60748E-07,-0.123136998,2.018775766,0.000397393,-0.001981751,-0.182860617
name_23,B,5,-2.41776E-05,4.18396E-06,3.2577E-07,-0.55267624,2.341765105,0.00081539,-0.001164876,-0.006165299
name_23,B,6,0.000321281,2.99953E-06,1.95634E-07,0.349131024,2.162781053,0.001173589,-0.000358311,0.081926584
name_23,B,7,-0.000494497,2.37415E-06,4.91162E-07,-0.640142148,2.581988343,0.000561615,-0.001977811,-0.12609685
name_23,B,8,0.000121293,2.91561E-06,2.07708E-07,0.055026757,2.171887561,0.000927979,-0.000677492,0.030929841
name_23,B,9,6.45664E-05,1.80951E-06,2.89962E-07,0.498612657,2.178053164,0.001084632,-0.000735199,0.016464431
name_23,B,10,-0.001079281,3.49316E-06,1.3846E-06,-0.503026418,2.227140975,0.000657416,-0.003382748,-0.275216745
name_23,B,11,8.16111E-05,5.26497E-06,6.21138E-07,-0.154952995,2.224985323,0.001410959,-0.001363849,0.020810834
name_23,B,12,-0.000161885,3.10046E-06,4.49287E-07,0.086112364,2.140706517,0.001047939,-0.001310534,-0.041280586
name_23,B,13,-0.000178894,-1.37015E-06,3.50987E-07,0.66210189,2.371116907,0.00106434,-0.000882864,-0.04561791
name_23,B,14,-0.000500928,-2.52527E-06,1.22508E-07,0.648349329,2.49706009,0.000223458,-0.001043212,-0.127736624
name_23,B,15,-0.00065041,-3.89451E-06,1.91117E-07,0.58289894,2.196951133,0.000246933,-0.001187348,-0.16585463
name_24,C,1,-0.002775605,-2.10023E-05,2.42143E-06,0.244908702,1.906138784,0.000272726,-0.005164444,-0.707779387
name_24,C,2,-0.001817396,-1.27484E-05,9.61222E-07,0.136872542,2.002867831,0.000260854,-0.00317166,-0.463435896
name_24,C,3,-0.000422037,1.30337E-06,2.3177E-07,0.111068444,1.604824314,0.00035806,-0.001107688,-0.107619485
name_24,C,4,-0.000294624,5.66582E-07,6.05775E-08,1.103854907,3.798673539,0.00042199,-0.000583427,-0.075129203
name_24,C,5,-0.000187444,4.61182E-06,2.42309E-07,0.325201476,2.66945158,0.001000356,-0.000994919,-0.04779817
name_24,C,6,-0.000858132,5.2153E-06,5.3141E-07,0.132296849,1.958734178,0.000631984,-0.001964135,-0.218823548
name_24,C,7,-0.000123189,1.08551E-06,5.32477E-08,0.77286095,3.528137075,0.000515431,-0.000461412,-0.031413094
name_24,C,8,-0.000636935,1.8249E-06,1.59901E-07,-0.121720224,2.157879637,0.000166623,-0.001322395,-0.162418338
name_24,C,9,-0.000830127,3.65766E-06,3.53144E-07,0.024699837,2.02643657,0.000422522,-0.001739101,-0.211682507
name_24,C,10,1.9677E-05,3.32619E-06,1.21404E-07,0.725608367,3.286570834,0.000926151,-0.000489257,0.005017642
name_24,C,11,0.00015608,6.88427E-06,3.59099E-07,0.115498572,1.955784767,0.001419991,-0.000711672,0.039800379
name_24,C,12,-0.00039782,3.45158E-06,1.99123E-07,0.410838733,3.040743345,0.000732962,-0.001116666,-0.101444171
name_24,C,13,-0.000484707,8.41969E-07,1.02708E-07,1.098714351,3.341587909,0.000339474,-0.000844507,-0.123600183
name_24,C,14,-0.001056031,-3.69427E-06,2.01789E-07,0.359562072,3.59857018,0.000246918,-0.001854247,-0.269287956
name_24,C,15,-0.002225429,-1.43165E-05,1.19126E-06,0.644247117,2.378504149,0.000229018,-0.003545858,-0.567484494
name_24,B,1,-0.000723916,-7.25355E-06,3.72348E-07,0.293270573,1.641360746,0.000260638,-0.001544618,-0.184598624
name_24,B,2,0.000560741,-6.68486E-07,1.40859E-07,-0.794492762,2.793562602,0.001021025,-0.000580748,0.142988976
name_24,B,3,0.000706254,7.70534E-06,5.82668E-07,-0.364813443,1.972363716,0.001855668,-0.000707575,0.180094804
name_24,B,4,0.000482555,4.84586E-06,1.93756E-07,0.075148126,1.798471118,0.001264707,-0.000227804,0.123051562
name_24,B,5,0.000674231,8.32512E-06,4.64021E-07,-0.218360581,1.512283743,0.001615454,-0.000434804,0.17192894
name_24,B,6,0.000366325,7.66886E-06,4.29899E-07,-0.154695506,1.322425937,0.001222922,-0.000592424,0.093412918
name_24,B,7,0.00050613,3.80876E-06,1.8206E-07,0.003110042,1.788826877,0.001213772,-0.00020135,0.129063032
name_24,B,8,-0.000338842,-6.88782E-07,4.44503E-08,0.170517014,2.328850955,0.000168911,-0.000868439,-0.086404748
name_24,B,9,3.66398E-05,3.68313E-06,1.60567E-07,-0.172493691,1.435974735,0.000598356,-0.000554023,0.009343147
name_24,B,10,0.000775563,8.47994E-06,4.80639E-07,-0.045972681,1.545109605,0.001900279,-0.000260058,0.197768489
name_24,B,11,0.000600993,8.32687E-06,4.61021E-07,-0.03018618,1.367738342,0.001643998,-0.000294414,0.153253182
name_24,B,12,0.000310824,6.19429E-06,2.83392E-07,-0.199952213,1.34423462,0.001009071,-0.000435327,0.07926018
name_24,B,13,0.000215076,5.63182E-06,2.61102E-07,0.509389962,2.256167185,0.001294777,-0.000458045,0.054844296
name_24,B,14,-0.000204043,-9.74372E-07,3.57955E-08,-0.809039278,3.00309775,0.000212724,-0.000749183,-0.052030918
name_24,B,15,-0.000497097,-5.00797E-06,1.79352E-07,-0.198827832,1.555181579,0.000113609,-0.001168525,-0.126759671
name_24,A,1,-0.002346024,-2.09788E-05,2.43877E-06,0.116570969,1.609589777,0.000147062,-0.004798149,-0.59823613
name_24,A,2,-0.002236674,-2.06712E-05,2.44135E-06,0.321718883,1.661725296,0.000129026,-0.004337345,-0.570351876
name_24,A,3,0.000353977,4.57126E-07,7.90121E-08,-0.367945965,2.123952017,0.00077473,-0.000193428,0.090264101
name_24,A,4,-0.000821792,-4.1133E-06,1.30844E-07,0.533575304,2.903388097,0.000109574,-0.001376274,-0.209556993
name_24,A,5,0.000481722,3.81301E-06,1.47276E-07,0.169766476,1.913877092,0.001187761,-8.2713E-05,0.122839012
name_24,A,6,0.000973253,2.51442E-06,2.04169E-07,-0.239970242,2.838964235,0.001783931,-0.000200659,0.248179515
name_24,A,7,-0.000380735,-1.69925E-06,3.98848E-08,0.224776544,2.217575283,0.000113008,-0.000699905,-0.097087314
name_24,A,8,0.000544153,2.22004E-06,8.65594E-08,0.247009976,2.608195289,0.001107115,-5.22988E-05,0.138759063
name_24,A,9,0.001182225,2.83226E-06,2.56481E-07,-0.667530092,3.174421076,0.001968356,-0.000200444,0.301467348
name_24,A,10,-1.68854E-05,-1.5033E-07,3.52502E-08,0.858485102,2.973883684,0.000418272,-0.000294781,-0.004305784
name_24,A,11,0.000333564,4.05036E-07,4.69974E-08,0.299113777,2.238312004,0.000753337,-7.92407E-05,0.085058878
name_24,A,12,0.000342052,6.98002E-07,6.25918E-08,0.288845284,2.121909015,0.00082537,-7.82506E-05,0.087223362
name_24,A,13,-0.000599473,-4.78263E-06,1.66794E-07,-0.218940741,1.700103007,2.95486E-05,-0.001281129,-0.15286568
name_24,A,14,-0.000334414,-2.79442E-06,6.82822E-08,-0.487229889,2.007729962,4.7468E-06,-0.000812128,-0.085275493
name_24,A,15,-0.00125781,-1.16444E-05,7.70339E-07,0.2100923,1.63457968,1.28205E-05,-0.002639471,-0.320741642
name_25,C,1,-0.005056727,-1.81918E-05,3.43365E-06,1.854868206,4.974614184,0.000446382,-0.006088711,-1.289465376
name_25,C,2,-0.003214944,-1.92926E-05,2.27484E-06,0.805894565,2.653633132,6.11127E-05,-0.005104208,-0.819810837
name_25,C,3,-0.001920965,-7.63579E-06,6.19899E-07,1.589368404,4.115069729,4.1601E-05,-0.002594669,-0.489846039
