name,task,channel,avg,slope,variance,skewness,kurtosis,max,min,sum
name_1,A,1,0.000515099,-5.19E-07,9.86E-07,-0.149702536,2.085356302,0.002188348,-0.001506078,0.261670109
name_1,A,2,-0.000307431,-3.45E-06,2.07E-06,-0.462304773,2.412023255,0.001939285,-0.003335495,-0.15617472
name_1,A,3,0.000860158,1.83E-06,7.52E-07,1.239883423,4.669737682,0.003453549,-0.00026927,0.436960355
name_1,A,4,0.001451138,-5.65E-07,3.21E-06,-0.157429061,2.074848703,0.004991856,-0.001839626,0.73717816
name_1,A,5,-0.001105857,-3.56E-06,1.86E-06,-0.26063341,2.974018843,0.001943882,-0.004130677,-0.561775153
name_1,A,6,0.000272341,8.20E-07,2.00E-07,0.936914077,4.303992641,0.001547125,-0.000501691,0.138349291
name_1,A,7,0.00192862,-6.52E-07,2.23E-06,0.332038142,2.153383691,0.005040736,-0.000362389,0.979739182
name_1,A,8,0.000509821,-2.19E-06,1.03E-06,-0.073185226,2.158728574,0.002466925,-0.001367043,0.258988946
name_1,A,9,0.000197893,1.89E-08,2.05E-07,-0.759096591,3.509931378,0.001255893,-0.000998644,0.100529707
name_1,A,10,0.002959467,-6.61E-06,5.19E-06,0.018017218,1.752070322,0.006680154,-0.000788971,1.503409063
name_1,A,11,0.000124949,-1.73E-06,2.02E-06,-0.515499788,2.66146833,0.002563194,-0.002988582,0.063474216
name_1,A,12,0.001413101,4.05E-06,9.71E-07,1.304732456,4.283502688,0.00444031,-0.000254536,0.717855397
name_1,A,13,0.002415293,-2.17E-07,2.32E-06,0.049968101,1.877344074,0.00523874,-0.000446033,1.226968731
name_1,A,14,0.000578661,4.31E-06,1.03E-06,0.043532463,2.069410827,0.00307704,-0.001413193,0.293959987
name_1,A,15,0.002561532,2.21E-06,1.43E-06,0.035388986,3.303947952,0.005300546,-0.000364684,1.301258305
name_1,B,1,0.000402823,5.37E-07,9.25E-07,0.079907751,2.635371032,0.00238909,-0.001645401,0.204634043
name_1,B,2,-0.001179782,5.78E-06,2.66E-06,0.40321609,2.588685256,0.002366251,-0.004032553,-0.599329157
name_1,B,3,-0.000275358,4.01E-07,1.73E-07,0.027699842,2.408856444,0.000543498,-0.001155814,-0.139881632
name_1,B,4,-0.001594622,-1.92E-06,7.35E-07,0.532201457,2.58439289,0.000289716,-0.002998176,-0.810067728
name_1,B,5,-0.001200633,1.56E-06,5.14E-07,0.612694192,2.331889137,0.000255014,-0.00227645,-0.609921709
name_1,B,6,-0.001183763,-2.13E-06,3.16E-07,1.265424925,3.767065104,0.000268987,-0.00188498,-0.601351405
name_1,B,7,-0.00048537,-1.08E-06,5.33E-07,-0.725107627,2.408252191,0.000589127,-0.002167613,-0.246568069
name_1,B,8,-0.00138811,-1.98E-06,3.60E-07,0.855347064,3.578005683,0.000120097,-0.002347478,-0.705160117
name_1,B,9,-0.00055072,8.68E-08,1.87E-07,0.540076665,2.394971089,0.000369289,-0.001240292,-0.279765833
name_1,B,10,-0.000242524,-1.18E-06,5.09E-07,-0.855523706,2.309140356,0.000599342,-0.001702123,-0.123202363
name_1,B,11,-0.00044186,1.44E-06,3.04E-07,0.309670842,3.293720878,0.000860747,-0.001542168,-0.224465109
name_1,B,12,0.000135449,2.28E-06,3.11E-07,-0.255073735,1.899090801,0.001086614,-0.000876153,0.068808273
name_1,B,13,-0.000721653,6.17E-07,3.42E-07,0.01454512,2.677784377,0.000471314,-0.001946903,-0.366599641
name_1,B,14,-0.000379251,1.95E-06,4.79E-07,0.202345159,1.954379393,0.000878131,-0.001534772,-0.192659647
name_1,B,15,0.002574384,4.87E-06,2.49E-06,0.259878046,1.945882167,0.005411993,-3.21E-05,1.307786943
name_1,C,1,0.001531236,-3.41E-06,2.22E-06,0.678055964,2.619833708,0.004869098,-0.000797617,0.77786792
name_1,C,2,0.003197644,1.77E-08,2.18E-06,-0.071385404,2.425142177,0.005875871,-0.000269963,1.624402977
name_1,C,3,0.001476125,3.28E-06,6.22E-07,-1.025579999,3.036316493,0.002495449,-0.000474267,0.749871572
name_1,C,4,0.001957589,3.26E-06,9.05E-07,-0.273268805,2.417657805,0.003692693,-0.000104766,0.994455186
name_1,C,5,0.000774074,-5.79E-06,2.17E-06,0.22174476,1.598376686,0.003346273,-0.001348166,0.393229445
name_1,C,6,0.000348809,-2.68E-07,1.28E-07,-0.67917932,3.084997704,0.000965673,-0.000585046,0.177194961
name_1,C,7,0.0028431,-4.68E-06,2.81E-06,0.498868635,2.546026092,0.006620799,-9.81E-05,1.444294868
name_1,C,8,0.000352503,-6.05E-06,1.47E-06,1.00164284,2.65819909,0.002980825,-0.000846651,0.179071601
name_1,C,9,0.000508133,-2.37E-06,3.45E-07,1.004578327,3.302017026,0.002032093,-0.000401589,0.258131375
name_1,C,10,0.003138511,-7.80E-06,4.21E-06,0.501242842,2.244750251,0.007571872,-6.93E-05,1.594363402
name_1,C,11,0.001103204,-4.27E-06,1.54E-06,0.363605103,1.74229458,0.003436189,-0.000743172,0.56042748
name_1,C,12,0.002206728,-1.10E-06,5.60E-07,-0.447133835,4.768140979,0.003958728,-0.000107479,1.121017782
name_1,C,13,0.000982943,-4.69E-06,1.01E-06,0.3063876,2.035712283,0.003033707,-0.000414047,0.499335121
name_1,C,14,0.001860815,1.58E-06,7.82E-07,0.239005727,2.706182455,0.003804304,-8.04E-05,0.945294034
name_1,C,15,0.002436816,-5.54E-06,2.71E-06,0.58425906,2.60138572,0.006285484,-5.06E-05,1.237902377
name_2,A,1,-0.000214511,-2.22E-06,2.25E-07,0.9366068,2.429788217,0.000809616,-0.000676217,-0.108971685
name_2,A,2,0.000303046,-2.18E-06,4.20E-07,0.347964312,2.084729132,0.0015163,-0.000820409,0.153947455
name_2,A,3,-0.000389227,-7.28E-06,1.93E-06,0.850097657,2.578943605,0.002822229,-0.002324667,-0.197727441
name_2,A,4,2.74E-05,-1.10E-06,2.89E-07,0.358693202,1.927076264,0.001152391,-0.00074,0.013895961
name_2,A,5,0.00050748,-5.47E-07,2.80E-07,0.005274424,1.958161915,0.001485789,-0.000491943,0.257799936
name_2,A,6,5.46E-05,-2.95E-06,4.23E-07,0.323421278,2.349420152,0.001462661,-0.001113756,0.027752761
name_2,A,7,4.02E-05,3.71E-07,3.05E-07,0.208614761,1.964892682,0.001156064,-0.00080078,0.020400015
name_2,A,8,0.00053651,1.10E-06,3.07E-07,0.145211558,1.692759782,0.001545202,-0.000309269,0.272547146
name_2,A,9,5.10E-05,-1.43E-06,2.44E-07,0.449981849,2.308333222,0.001109883,-0.000732818,0.025911358
name_2,A,10,0.000322099,2.06E-06,3.88E-07,0.139537175,1.948372222,0.00136193,-0.000782841,0.163626356
name_2,A,11,0.000314251,6.71E-07,1.72E-07,-0.002297332,1.643528737,0.000934236,-0.000349519,0.159639444
name_2,A,12,0.000147141,2.59E-07,1.74E-07,-0.159417849,1.537912136,0.000756694,-0.000519636,0.074747657
name_2,A,13,0.000681018,1.57E-06,3.91E-07,-0.061765914,1.807534915,0.001649586,-0.000411309,0.345957248
name_2,A,14,0.000423624,4.31E-07,5.33E-08,-0.98461514,3.290780937,0.000754142,-0.000171627,0.215201222
name_2,A,15,1.75E-05,-9.29E-07,8.08E-08,0.401393916,2.523291582,0.000657505,-0.000488315,0.008893843
name_2,C,1,-0.001774606,-3.26E-06,9.95E-07,0.727463783,2.867975073,0.00037777,-0.003627447,-0.901499742
name_2,C,2,0.000380657,1.99E-06,1.39E-07,0.440935638,2.401769096,0.001159404,-0.000267284,0.193373636
name_2,C,3,0.000437778,1.77E-06,2.39E-07,-0.342408276,2.433533535,0.001213682,-0.000691926,0.222391232
name_2,C,4,0.001060243,3.21E-06,2.98E-07,-0.524989958,2.062876722,0.00183142,-7.95E-05,0.538603307
name_2,C,5,0.001416108,2.64E-06,3.14E-07,-0.687056748,2.692834572,0.002126269,-0.000309241,0.719382799
name_2,C,6,0.001137177,2.21E-06,2.14E-07,-0.634652403,2.656995038,0.001762644,-0.000307403,0.577685918
name_2,C,7,0.001194014,3.17E-06,3.47E-07,-0.506404448,2.221177724,0.002042017,-0.000127968,0.606559033
name_2,C,8,0.000558353,2.21E-06,2.00E-07,0.469938086,2.534292504,0.001607943,-0.000196312,0.283643236
name_2,C,9,0.000539104,1.85E-06,1.45E-07,-0.092262023,1.935569515,0.001166258,-0.000200757,0.273864923
name_2,C,10,0.001553834,4.15E-06,5.45E-07,-0.528093027,2.299676649,0.002616215,-0.000129901,0.78934748
name_2,C,11,0.001429093,3.56E-06,3.71E-07,-0.554497251,2.412810951,0.002243187,-0.000165845,0.725979052
name_2,C,12,0.000695234,3.62E-06,3.39E-07,0.542080683,1.941094057,0.001772328,-0.000120241,0.353178983
name_2,C,13,0.00174636,3.54E-06,4.75E-07,-0.956356105,2.789561679,0.002491088,-0.000275254,0.887150971
name_2,C,14,0.001051205,5.95E-06,8.81E-07,0.552560124,1.877902275,0.002770131,-0.000144972,0.534012205
name_2,C,15,-3.80E-05,5.52E-07,3.12E-07,0.146785027,2.239712186,0.001147543,-0.00110346,-0.019317923
name_2,B,1,0.002392312,1.96E-05,9.04E-06,0.591068302,2.118710708,0.00929758,-0.001314289,1.215294629
name_2,B,2,0.005287298,1.98E-05,8.76E-06,-0.408039021,1.959347496,0.009136609,-0.00039495,2.685947258
name_2,B,3,0.003704012,1.43E-05,4.72E-06,0.038060594,2.216419194,0.007494497,-0.000459918,1.881638004
name_2,B,4,0.002394928,8.20E-06,1.61E-06,-0.672490163,2.673654136,0.004156236,-0.000419111,1.216623194
name_2,B,5,0.004068935,1.18E-05,3.33E-06,-0.749312837,2.836867935,0.006513266,-0.000159451,2.06701903
name_2,B,6,0.003402581,8.69E-06,2.05E-06,-0.915647453,3.476178916,0.005604137,-0.000200493,1.728510904
name_2,B,7,0.00302609,1.07E-05,2.66E-06,-0.174790418,2.265215706,0.005708654,-0.000323867,1.53725379
name_2,B,8,0.002987164,1.35E-05,4.00E-06,-0.040637297,1.631976387,0.005821051,-0.000308508,1.517479518
name_2,B,9,0.002698688,1.16E-05,3.05E-06,0.10246787,1.934502031,0.005639242,-0.000346264,1.370933561
name_2,B,10,0.003588382,1.31E-05,3.92E-06,-0.173409394,1.977640464,0.006418541,-0.000323143,1.822898077
name_2,B,11,0.003457865,1.24E-05,3.58E-06,-0.35592876,2.504364881,0.006562729,-0.000441032,1.75659518
name_2,B,12,0.001905321,1.49E-05,5.34E-06,0.777048801,2.465995524,0.006787623,-0.001071717,0.967903037
name_2,B,13,0.00335084,9.11E-06,2.29E-06,-1.175971992,3.71485984,0.005328108,-0.000537181,1.702226633
name_2,B,14,0.002950196,1.41E-05,4.53E-06,0.418409098,1.938329541,0.006785295,-0.000234337,1.498699535
name_2,B,15,0.002532617,1.45E-05,4.90E-06,0.25530031,1.374620364,0.005967205,-8.58E-05,1.286569192
name_3,B,1,0.003157287,-1.18E-06,6.97E-06,0.728968503,2.817403716,0.009664006,-0.000993989,1.603901782
name_3,B,2,0.004634305,6.88E-06,3.54E-06,-0.379618457,2.866869547,0.007837914,-0.000110276,2.354227035
name_3,B,3,0.002114126,3.40E-06,8.68E-07,-0.178558154,2.425551807,0.003974843,-0.000167648,1.073975973
name_3,B,4,0.001386765,1.25E-06,5.06E-07,0.319708818,2.344195522,0.002897608,-0.000121817,0.704476515
name_3,B,5,0.002264651,2.73E-06,1.04E-06,-0.432886558,2.347888355,0.003920841,-0.000149608,1.150442551
name_3,B,6,0.003242923,5.12E-06,1.09E-06,-1.485953881,5.127239495,0.004491338,-0.000101081,1.647405073
name_3,B,7,0.003352417,4.23E-06,1.37E-06,-1.042646503,4.173101351,0.005095341,-0.000205151,1.703027622
name_3,B,8,0.002670656,3.89E-06,1.01E-06,-1.18804245,3.915063792,0.004077525,-1.53E-05,1.356693238
name_3,B,9,0.002516649,4.90E-06,8.07E-07,-0.970405622,3.811842448,0.003707825,-4.79E-05,1.27845762
name_3,B,10,0.003276392,4.00E-06,1.64E-06,-0.518863057,3.344200952,0.005440679,-0.000163621,1.664407161
name_3,B,11,0.003132624,3.96E-06,1.31E-06,-0.823171648,3.696904255,0.005012763,-0.000163897,1.591373215
name_3,B,12,0.002210582,3.35E-06,7.11E-07,-0.705833009,3.063975314,0.003656306,-0.000205317,1.122975417
name_3,B,13,0.002571013,2.37E-06,1.03E-06,-0.220394197,3.202443692,0.004497246,-0.000232579,1.306074642
name_3,B,14,0.003010662,4.80E-06,1.17E-06,-1.234506583,3.678046503,0.004417486,-0.000165262,1.529416297
name_3,B,15,0.006194755,1.20E-05,7.50E-06,-0.803157553,2.555670251,0.010195124,-0.00053553,3.146935352
name_3,A,1,0.003629089,-1.86E-06,3.92E-06,-0.094297274,2.495759251,0.007115599,-0.001051658,1.84357742
name_3,A,2,0.002994859,2.31E-06,3.74E-06,0.202769429,1.870400663,0.006741762,-0.001248508,1.521388611
name_3,A,3,0.000205433,2.56E-06,1.86E-06,0.179044993,1.77698665,0.002714383,-0.002027237,0.10436001
name_3,A,4,0.000269537,1.09E-06,1.09E-06,0.16911838,2.170603119,0.002303862,-0.001553153,0.136924963
name_3,A,5,0.000260284,-1.40E-07,8.15E-07,-0.142312765,2.030991602,0.001935868,-0.001381282,0.132224091
name_3,A,6,0.000388398,-7.86E-08,8.63E-07,0.215107415,1.829428471,0.002073909,-0.001018031,0.197306017
name_3,A,7,0.000559118,1.71E-06,8.45E-07,0.943804981,2.827039059,0.002719526,-0.000585929,0.284032159
name_3,A,8,0.000373204,1.68E-06,5.35E-07,0.116733898,1.670875037,0.00160669,-0.000780619,0.189587829
name_3,A,9,-2.96E-05,-1.72E-06,4.90E-07,0.17996307,2.38414097,0.001529987,-0.001359074,-0.015060494
name_3,A,10,6.94E-05,1.14E-07,5.13E-07,0.407459323,2.022010151,0.001537749,-0.000950612,0.035268865
name_3,A,11,-0.000170016,-4.78E-07,7.09E-07,0.235113402,2.020317672,0.001443601,-0.001577798,-0.08636805
name_3,A,12,0.000456264,3.93E-06,1.29E-06,0.485234213,2.000551962,0.002730689,-0.00124454,0.23178213
name_3,A,13,-0.000212581,-4.81E-08,8.60E-07,0.254977892,1.864665849,0.001589763,-0.001688142,-0.107991192
name_3,A,14,0.002218263,6.40E-06,1.60E-06,0.386865383,2.249380876,0.004672837,-0.000283051,1.126877803
name_3,A,15,0.000441113,3.77E-06,2.31E-06,0.231569965,1.632949623,0.003087679,-0.001888431,0.224085446
name_3,C,1,0.00386269,2.00E-05,4.47E-05,1.726088553,5.325156869,0.025034303,-0.002750087,1.962246303
name_3,C,2,0.006070137,1.27E-05,6.76E-06,-0.588051398,3.0207256,0.01053606,-0.000529106,3.083629841
name_3,C,3,0.00332096,7.71E-06,2.10E-06,-0.599388903,2.790247492,0.005751922,-0.000473665,1.687047731
name_3,C,4,0.002709079,5.15E-06,1.19E-06,-0.602894013,3.438281919,0.004908409,-0.000259461,1.376212376
name_3,C,5,0.002498724,4.71E-06,1.03E-06,-0.947441276,3.531060412,0.004212259,-0.000170277,1.269351777
name_3,C,6,0.002251138,2.63E-06,7.29E-07,-1.145476546,3.515056571,0.003308138,-0.000147779,1.143578207
name_3,C,7,0.002794586,4.91E-06,1.06E-06,-0.80183662,3.909316103,0.004742829,-0.00026537,1.419649697
name_3,C,8,0.002142985,5.24E-06,8.10E-07,-0.530484243,2.952341882,0.003824127,-0.000110731,1.08863647
name_3,C,9,0.001226751,2.37E-06,2.73E-07,-0.133963081,2.768946063,0.002318819,-0.000216625,0.623189689
name_3,C,10,0.002784773,4.63E-06,1.01E-06,-0.520138839,4.32236975,0.005005981,-0.000288888,1.414664511
name_3,C,11,0.002911196,6.49E-06,1.40E-06,-0.449742876,3.378690407,0.005344946,-0.000182686,1.478887786
name_3,C,12,0.001904749,5.21E-06,1.02E-06,-0.352825439,2.106134894,0.003480823,-0.000259483,0.96761251
name_3,C,13,0.00272998,4.21E-06,1.09E-06,-0.642273833,3.593090824,0.004837536,-0.000351877,1.386829987
name_3,C,14,0.001719786,3.27E-06,8.32E-07,-0.630998083,2.186723465,0.002971358,-0.000128691,0.873651357
name_3,C,15,0.003751719,1.08E-05,4.28E-06,-0.344615266,2.781171302,0.007910146,-0.00047648,1.905873402
name_4,B,1,0.003656753,5.12E-06,2.69E-06,-1.044338102,3.062045733,0.005415668,-0.000114671,1.857630695
name_4,B,2,0.00051136,3.51E-06,1.87E-06,-0.942422746,3.701429902,0.002381974,-0.003224542,0.259770866
name_4,B,3,-0.002122736,-6.26E-06,1.06E-06,0.750336163,2.011483055,0.000118499,-0.00328712,-1.078349686
name_4,B,4,-0.001295368,-2.74E-06,1.63E-06,-0.652827959,3.065174877,0.000788356,-0.004419751,-0.65804687
name_4,B,5,-0.001004069,-5.96E-06,1.23E-06,0.989934568,2.681728353,0.001669932,-0.002296881,-0.510067146
name_4,B,6,0.000296456,2.31E-06,3.48E-07,-0.943961395,2.882979695,0.000971455,-0.001114501,0.150599849
name_4,B,7,-0.000491355,-5.10E-06,8.29E-07,0.499729658,2.864212141,0.001725734,-0.002423784,-0.249608369
name_4,B,8,3.76E-05,1.48E-06,4.04E-07,-1.062863439,3.023620288,0.000695984,-0.001515809,0.019124035
name_4,B,9,0.000383504,2.62E-06,6.14E-07,-1.084964943,3.188972488,0.001140908,-0.001590821,0.194819825
name_4,B,10,0.001041683,-2.34E-06,9.38E-07,0.830098557,2.684324081,0.003283645,-0.000459448,0.529174974
name_4,B,11,-0.000121309,-1.29E-06,3.20E-07,0.735075132,4.746417929,0.001499732,-0.00135834,-0.061625044
name_4,B,12,-0.001019945,-1.02E-06,5.14E-07,-0.488442357,2.822324665,9.32E-05,-0.002691244,-0.518132176
name_4,B,13,-0.001343266,-4.03E-06,9.46E-07,0.217721077,2.364248653,0.000535391,-0.003273841,-0.682378988
name_4,B,14,0.001721801,-2.73E-06,1.08E-06,-0.599235311,2.312056917,0.003360406,-0.000690236,0.874674776
name_4,B,15,0.002395062,-2.09E-06,2.23E-06,0.053806963,2.277695764,0.005270328,-6.49E-05,1.216691716
name_4,C,1,-0.001455603,-9.04E-06,2.30E-06,0.308241313,2.003334737,0.001342455,-0.003760956,-0.73944632
name_4,C,2,-0.001002152,-6.66E-06,1.51E-06,0.731328971,2.262325405,0.001429482,-0.002741796,-0.50909323
name_4,C,3,-0.000103838,-2.94E-06,1.07E-06,0.308577128,2.089501846,0.001713716,-0.001884971,-0.052749552
name_4,C,4,-0.000624427,-3.77E-06,1.49E-06,0.495571468,2.225599805,0.00171635,-0.00256912,-0.317209129
name_4,C,5,0.000136077,-5.13E-06,2.15E-06,0.769303753,2.398862713,0.003181324,-0.001852104,0.069127007
name_4,C,6,0.000568449,-1.56E-06,7.39E-07,0.418456122,1.915329388,0.002203516,-0.00063357,0.288771891
name_4,C,7,-0.000630977,-3.92E-06,1.25E-06,0.938480125,2.999036462,0.001940108,-0.002221136,-0.320536184
name_4,C,8,0.000478361,4.28E-07,5.73E-07,0.112624548,1.556854062,0.001713128,-0.000658189,0.243007453
name_4,C,9,0.00067603,-1.47E-06,1.00E-06,0.444129365,2.112686927,0.002760924,-0.00084304,0.343423388
name_4,C,10,-0.001260525,-4.61E-06,2.06E-06,0.699215583,3.207320808,0.002118402,-0.003794979,-0.64034686
name_4,C,11,5.03E-05,-2.04E-06,1.05E-06,0.613154799,2.416016427,0.002317506,-0.001473642,0.025545194
name_4,C,12,0.001386285,8.60E-08,6.11E-07,-0.228177451,1.954801607,0.002571933,-0.000770615,0.704232733
name_4,C,13,0.000238003,-3.89E-06,1.64E-06,0.478600797,2.306697693,0.002813252,-0.001878468,0.120905346
name_4,C,14,0.000601669,-3.09E-06,7.25E-07,1.034190947,3.133819592,0.002690458,-0.000675883,0.305647743
name_4,C,15,0.000405581,-8.50E-06,3.48E-06,0.271150034,2.166673162,0.004234863,-0.002664201,0.206034961
name_4,A,1,0.001587732,7.91E-06,1.45E-06,-0.117282493,1.524445009,0.003216924,-0.000444257,0.806567746
name_4,A,2,-0.000534435,4.33E-06,7.23E-07,-0.041440645,1.745748484,0.001194114,-0.001936185,-0.271493133
name_4,A,3,-0.001376378,1.67E-06,6.36E-07,-0.580524717,2.789701941,4.43E-05,-0.003122414,-0.699199959
name_4,A,4,-0.001282034,-1.80E-06,2.34E-07,0.496159874,3.425566804,3.29E-05,-0.00220872,-0.651273216
name_4,A,5,-0.001214849,-7.05E-07,2.84E-07,-0.292617452,3.600701168,4.34E-05,-0.002484458,-0.617143147
name_4,A,6,-0.000166042,1.14E-06,1.94E-07,-0.031789733,2.090414086,0.000566578,-0.001003374,-0.084349136
name_4,A,7,-0.001355373,-1.71E-06,2.19E-07,0.743901831,4.145271657,3.75E-05,-0.002196465,-0.6885295
name_4,A,8,-0.000556373,-1.78E-07,1.04E-07,-0.104121137,2.407609403,2.11E-05,-0.001220298,-0.282637681
name_4,A,9,-0.000331306,6.77E-07,1.62E-07,0.015698072,2.040621368,0.000363363,-0.001037451,-0.168303647
name_4,A,10,-0.001136666,-8.77E-07,2.38E-07,0.456737579,2.540669825,3.15E-05,-0.002003928,-0.577426276
name_4,A,11,-0.001095457,-6.14E-07,2.23E-07,0.457183239,2.901290093,6.41E-05,-0.001988682,-0.556492107
name_4,A,12,-0.000232395,9.04E-07,1.81E-07,-0.247445224,2.439632027,0.000524174,-0.001143975,-0.118056747
name_4,A,13,-0.001002477,-6.31E-08,2.20E-07,-0.296269778,3.095149211,4.41E-05,-0.002085134,-0.509258092
name_4,A,14,-0.000318611,1.43E-06,1.66E-07,-0.349402265,1.854479052,0.000384099,-0.00112213,-0.161854162
name_4,A,15,0.000768779,6.10E-06,1.09E-06,0.003801124,1.354683423,0.00230873,-0.000778639,0.390539793
name_5,C,1,-0.000331488,-4.48E-06,7.28E-07,-0.164359584,2.040246333,0.001181376,-0.002011121,-0.168395654
name_5,C,2,-0.000738486,-6.89E-06,1.53E-06,0.014386677,1.967319342,0.001546986,-0.003007082,-0.375151046
name_5,C,3,-0.00092699,-7.61E-06,1.55E-06,-0.248852391,1.704566685,0.000814777,-0.003230159,-0.470910826
name_5,C,4,-0.000786672,-6.02E-06,1.06E-06,0.052983807,1.947956818,0.001247372,-0.002477911,-0.399629359
name_5,C,5,-0.00069237,-9.94E-06,2.56E-06,-0.001440211,1.703695139,0.00212864,-0.003220804,-0.351724036
name_5,C,6,-0.000160351,-6.57E-06,1.49E-06,-0.189564523,2.149304254,0.001839213,-0.002688778,-0.081458374
name_5,C,7,-0.002721911,-1.37E-05,4.36E-06,0.048911095,1.582954392,0.000644679,-0.0058327,-1.382730968
name_5,C,8,-0.001095529,-9.23E-06,2.10E-06,0.066955798,1.635699999,0.001394644,-0.003323594,-0.556528701
name_5,C,9,-0.001331188,-1.11E-05,3.43E-06,0.144277439,1.8709283,0.002237046,-0.004433624,-0.676243397
name_5,C,10,-0.002282845,-1.22E-05,3.52E-06,0.129882655,1.703011484,0.000963819,-0.00515632,-1.159685346
name_5,C,11,-0.00170861,-1.21E-05,3.55E-06,-0.015142158,1.70916387,0.001568496,-0.004635818,-0.867973974
name_5,C,12,-0.001420313,-9.71E-06,2.30E-06,-0.088630269,1.801839875,0.001152434,-0.003809078,-0.721518947
name_5,C,13,-0.00220922,-1.28E-05,4.16E-06,0.088201332,1.966783344,0.001809647,-0.00532573,-1.122283674
name_5,C,14,-0.001187095,-8.95E-06,2.04E-06,-0.053541921,1.934244808,0.001467485,-0.003546097,-0.603044158
name_5,C,15,-3.73E-05,-4.81E-06,1.05E-06,0.295127052,2.5052002,0.002368798,-0.001806794,-0.018935653
name_5,A,1,0.001811682,-4.34E-06,1.18E-06,0.987522376,3.102161163,0.004602974,-0.000545313,0.920334323
name_5,A,2,0.001604148,-5.25E-06,1.74E-06,1.26171439,3.726323924,0.005250984,-0.000579514,0.814907414
name_5,A,3,0.001451653,-3.32E-06,1.13E-06,1.045844333,3.338647408,0.004319777,-0.00043788,0.737439508
name_5,A,4,0.001463191,-3.48E-06,8.98E-07,0.946031863,3.054654057,0.003848696,-0.000459333,0.743300909
name_5,A,5,0.001895104,-3.69E-06,1.31E-06,1.082032481,3.576688029,0.005006267,-0.000488915,0.962713051
name_5,A,6,0.002478603,-3.02E-06,1.21E-06,0.56406186,3.312791803,0.005155112,-0.000527603,1.259130423
name_5,A,7,0.001340824,-7.12E-06,2.32E-06,1.185751982,3.045636995,0.005241782,-0.000539966,0.681138628
name_5,A,8,0.001418582,-5.09E-06,1.55E-06,1.265992287,3.531323059,0.004835038,-0.000600295,0.720639786
name_5,A,9,0.002134382,-5.17E-06,2.15E-06,1.146513879,3.513790762,0.00614718,-0.000577254,1.084266185
name_5,A,10,0.001879177,-4.93E-06,1.71E-06,1.363719629,4.198516216,0.005642404,-0.000701393,0.954621937
name_5,A,11,0.002072456,-6.09E-06,2.49E-06,1.351456799,3.97739378,0.006561611,-0.000656541,1.052807634
name_5,A,12,0.001340736,-6.21E-06,1.80E-06,1.127367552,3.099543221,0.004845886,-0.000509527,0.681094117
name_5,A,13,0.002605309,-6.27E-06,2.34E-06,0.979038817,3.267137511,0.006564674,-0.000875482,1.323496729
name_5,A,14,0.002090008,-4.83E-06,1.39E-06,0.909091182,3.042586848,0.005056212,-0.000495264,1.061724209
name_5,A,15,0.002939476,-3.14E-06,1.26E-06,0.074764212,3.521460739,0.00536432,-0.000543838,1.493253756
name_5,B,1,-0.000592009,-6.66E-07,2.03E-07,-0.00057107,2.01619834,0.000300981,-0.001345375,-0.300740453
name_5,B,2,-0.001834677,-3.49E-06,7.31E-07,0.967798151,3.682462395,0.000521214,-0.003150253,-0.932015794
name_5,B,3,-0.000368715,2.07E-06,3.58E-07,0.100561619,2.553161047,0.000837879,-0.001617841,-0.187307139
name_5,B,4,-0.001364441,-2.00E-06,4.38E-07,1.155839975,4.24332082,0.000555065,-0.002349039,-0.69313595
name_5,B,5,-0.000522938,9.39E-07,2.54E-07,-0.403708884,2.917304567,0.000402886,-0.001742257,-0.265652586
name_5,B,6,0.000608801,4.97E-06,7.47E-07,0.39021993,2.105296937,0.002299512,-0.000751063,0.309271159
name_5,B,7,-0.000395678,4.40E-07,1.99E-07,-0.175702059,2.114889738,0.000371519,-0.001315666,-0.201004457
name_5,B,8,0.001234338,5.59E-06,8.04E-07,-0.235332985,1.575350093,0.002558013,-0.000191512,0.627043578
name_5,B,9,0.000448801,3.17E-06,4.47E-07,0.261895171,2.358737188,0.001822594,-0.00082158,0.227990762
name_5,B,10,0.000602142,2.76E-06,3.56E-07,-0.300738111,1.86792851,0.001556365,-0.000485086,0.305888243
name_5,B,11,0.001044657,4.08E-06,5.79E-07,-0.111210527,2.063460282,0.00244025,-0.000288481,0.530685893
name_5,B,12,0.000132186,1.60E-06,1.86E-07,0.304431388,2.422653592,0.001060683,-0.00067595,0.067150591
name_5,B,13,-0.001453377,-2.11E-06,6.80E-07,0.685790359,2.975076,0.00069391,-0.002721117,-0.738315636
name_5,B,14,-0.000453205,-6.50E-07,1.90E-07,0.23335975,2.077429829,0.000429322,-0.001206641,-0.230228207
name_5,B,15,-0.000833934,-9.73E-07,4.65E-07,0.665097885,2.792994223,0.000919208,-0.001816947,-0.423638607
name_6,C,1,0.000425519,5.80E-07,3.47E-08,-0.740203529,2.735105695,0.000669002,-7.89E-06,0.216163892
name_6,C,2,-0.000180775,-1.69E-06,5.25E-07,0.437696293,3.119719426,0.001533755,-0.001566243,-0.091833803
name_6,C,3,0.000633976,1.80E-06,3.88E-07,-0.577545872,3.113363571,0.001807813,-0.000947597,0.322059712
name_6,C,4,-0.001520245,-1.28E-06,3.12E-07,0.840895953,3.718655803,0.000286612,-0.002476197,-0.772284529
name_6,C,5,5.82E-05,2.32E-06,3.76E-07,-0.154913835,2.475715975,0.001306406,-0.001187327,0.029578875
name_6,C,6,0.00039752,3.42E-06,5.18E-07,-0.203802501,2.223645316,0.001745614,-0.001168495,0.201940394
name_6,C,7,-0.000371129,1.83E-06,3.71E-07,-0.859448057,3.243195863,0.000591257,-0.002024142,-0.188533426
name_6,C,8,0.000559617,2.62E-06,3.41E-07,-0.197497854,1.993893125,0.001667487,-0.000567618,0.284285552
name_6,C,9,0.000412632,1.85E-06,2.60E-07,-0.256385887,2.034618354,0.001250053,-0.000605203,0.209616986
name_6,C,10,-0.000930967,-1.23E-07,2.51E-07,-0.233384684,2.476857999,0.00040028,-0.001962238,-0.472931111
name_6,C,11,-0.000172454,8.68E-07,8.71E-08,0.098712507,2.221663438,0.000432949,-0.000724015,-0.087606495
name_6,C,12,0.000291824,2.81E-06,4.02E-07,-0.455579419,2.200896085,0.00126995,-0.001157172,0.14824654
name_6,C,13,-0.000935526,4.36E-06,8.51E-07,-0.046399718,2.37989517,0.000826767,-0.002642001,-0.475247405
name_6,C,14,-6.68E-05,2.35E-06,2.57E-07,0.227573325,3.162058857,0.001196708,-0.001160374,-0.033916649
name_6,C,15,-0.001295248,1.48E-06,3.64E-07,0.820594335,3.333532383,0.000476982,-0.002196797,-0.657986066
name_6,B,1,0.000402489,2.39E-06,1.36E-07,-0.147643715,1.590050456,0.001036256,-0.00019635,0.204464402
name_6,B,2,0.001627731,5.34E-06,1.29E-06,-0.812966827,2.607623945,0.00299868,-0.000896601,0.826887197
name_6,B,3,-8.56E-06,1.91E-06,2.49E-07,0.258252826,2.1303148,0.000904979,-0.000887016,-0.004346905
name_6,B,4,0.001715106,5.11E-06,9.15E-07,-1.119352565,2.688197471,0.002650295,-0.000406429,0.871273946
name_6,B,5,0.001074723,4.66E-06,5.57E-07,-0.367985739,2.195611859,0.002266862,-0.000400166,0.545959513
name_6,B,6,0.000827256,5.28E-06,7.05E-07,0.356387314,2.609528053,0.002553818,-0.000703557,0.420246153
name_6,B,7,0.002217178,8.75E-06,1.99E-06,-0.764366665,2.265418265,0.004017651,-0.000761485,1.126326479
name_6,B,8,0.000405773,5.45E-06,7.71E-07,0.371032485,2.014527019,0.002110237,-0.000952835,0.206132639
name_6,B,9,0.00059378,2.02E-06,1.82E-07,-0.409838861,2.992386461,0.001470579,-0.000349012,0.301640479
name_6,B,10,0.001656974,8.50E-06,1.64E-06,-0.177220728,1.907701198,0.003728707,-0.000555226,0.841742843
name_6,B,11,0.001900242,7.74E-06,1.44E-06,-0.674877829,2.344166836,0.003540102,-0.000551329,0.965322898
name_6,B,12,0.000735174,4.31E-06,4.92E-07,-0.528958921,2.641430005,0.001826923,-0.000853692,0.373468332
name_6,B,13,0.002387109,8.34E-06,1.93E-06,-0.878969146,2.534799956,0.004061615,-0.000794262,1.212651332
name_6,B,14,0.000584648,4.41E-06,5.16E-07,-0.180734935,2.581379315,0.001896886,-0.000948146,0.297001132
name_6,B,15,0.002516521,1.07E-05,2.75E-06,-0.528058923,2.142997113,0.00487275,-0.000800787,1.27839284
name_6,A,1,0.00156622,9.10E-06,2.06E-06,0.147486146,1.39746835,0.00380034,-0.000427485,0.795639671
name_6,A,2,0.001977594,1.55E-05,6.42E-06,0.541971806,1.716069794,0.006175253,-0.000960546,1.004617877
name_6,A,3,-0.0003112,5.30E-06,1.49E-06,0.549929857,2.226532159,0.002162198,-0.002336589,-0.158089742
name_6,A,4,0.001719901,9.77E-06,2.32E-06,0.1001914,1.301297927,0.003777073,-0.000346076,0.873709775
name_6,A,5,0.001487139,9.41E-06,2.27E-06,0.12048772,1.383769871,0.003680191,-0.000728602,0.755466645
name_6,A,6,0.001052886,8.02E-06,2.00E-06,0.123344009,1.579244491,0.00337662,-0.001118969,0.534866134
name_6,A,7,0.001925262,1.19E-05,3.55E-06,0.064954988,1.242587063,0.004509912,-0.000646553,0.978033218
name_6,A,8,0.001038152,9.05E-06,2.18E-06,0.179951946,1.396409028,0.003188649,-0.001071806,0.527381411
name_6,A,9,0.000542994,5.35E-06,1.10E-06,-0.294829944,1.907292512,0.002097489,-0.001468073,0.275840864
name_6,A,10,0.00102618,8.54E-06,1.87E-06,0.251260503,1.338026856,0.003001176,-0.000595659,0.521299605
name_6,A,11,0.001460738,9.37E-06,2.24E-06,0.028464854,1.456275625,0.003597176,-0.000945677,0.742054866
name_6,A,12,0.000625426,6.51E-06,1.25E-06,0.113230856,1.617214146,0.00247365,-0.001230358,0.317716345
name_6,A,13,0.002483664,1.19E-05,3.22E-06,0.103366486,1.807562825,0.005667644,-7.73E-05,1.261701438
name_6,A,14,0.001622335,8.43E-06,1.72E-06,0.180981962,1.674603749,0.003594834,-0.000460672,0.82414632
name_6,A,15,0.002674765,1.29E-05,4.32E-06,0.061055775,1.170439598,0.005247146,-0.000172269,1.358780399
name_8,A,1,-0.000497594,5.91E-06,2.08E-06,0.34318779,1.898665022,0.002310859,-0.002575966,-0.252777608
name_8,A,2,-0.00272948,5.73E-06,4.92E-06,0.116966674,1.618744609,0.001037311,-0.006068114,-1.386575606
name_8,A,3,-0.003375982,-2.70E-06,3.08E-06,0.15948477,1.911106541,0.000337941,-0.006245293,-1.714998771
name_8,A,4,-0.001984728,1.20E-06,2.15E-06,-0.232720939,1.820728818,4.26E-05,-0.004671535,-1.008241989
name_8,A,5,-0.002638646,-4.14E-07,2.55E-06,-0.249783343,2.235480023,0.00025105,-0.005832409,-1.340432173
name_8,A,6,-0.003843732,-9.93E-06,4.90E-06,0.384157573,1.832464773,0.000194176,-0.006691636,-1.952615854
name_8,A,7,-0.000341607,1.01E-05,4.01E-06,0.588264252,2.080872816,0.003723215,-0.003268542,-0.173536602
name_8,A,8,-0.00114666,6.15E-06,3.47E-06,1.105523853,3.805527324,0.003708611,-0.003876877,-0.582503294
name_8,A,9,-0.002089706,-1.27E-06,2.18E-06,0.087005315,1.887095177,0.000565577,-0.004361808,-1.061570764
name_8,A,10,-0.001274647,8.50E-06,5.02E-06,0.652163214,1.991321606,0.003093252,-0.004103057,-0.647520789
name_8,A,11,-0.003615808,2.54E-06,6.35E-06,0.051954739,1.794365782,0.000588208,-0.007541248,-1.836830563
name_8,A,12,-0.001916193,1.48E-06,1.80E-06,0.312219628,2.275978447,0.000722245,-0.004167986,-0.973425882
name_8,A,13,-0.005022046,-1.60E-06,7.75E-06,-0.058073194,1.721281422,0.000243347,-0.009025074,-2.551199554
name_8,A,14,-0.007315945,-9.24E-06,1.32E-05,0.032212202,2.134519212,0.000585399,-0.01335,-3.716499843
name_8,A,15,-0.003405831,-2.18E-06,2.79E-06,-0.032404364,2.030527811,0.000303789,-0.005997506,-1.730162052
name_8,C,1,-0.001145782,-3.95E-06,4.61E-07,-0.106104476,2.049136724,0.000150129,-0.002345427,-0.582057214
name_8,C,2,-0.002521024,-6.09E-06,1.12E-06,1.020334412,3.339329322,0.000205552,-0.003888639,-1.280680126
name_8,C,3,-0.000134519,5.88E-07,4.10E-08,-0.256904229,2.41266576,0.000440569,-0.00056849,-0.068335856
name_8,C,4,-0.00208223,-8.73E-06,1.80E-06,-0.005463395,1.991833181,0.000517591,-0.004190138,-1.057772833
name_8,C,5,-0.001259321,-4.02E-06,4.25E-07,0.575835943,2.600697686,0.000247654,-0.002125627,-0.639735107
name_8,C,6,0.000397654,1.45E-06,9.15E-08,-0.724457284,2.693584348,0.000816675,-0.000336949,0.202008461
name_8,C,7,-0.001223445,-4.64E-06,6.37E-07,0.259248207,2.312554546,0.000575035,-0.002491706,-0.621509904
name_8,C,8,-0.000654945,-2.30E-06,2.24E-07,0.267430914,2.649186544,0.000424602,-0.001524867,-0.332712122
name_8,C,9,-0.001255507,-3.24E-06,3.99E-07,0.518139692,2.432104269,8.25E-05,-0.002171951,-0.637797532
name_8,C,10,-0.002449679,-7.03E-06,1.28E-06,0.895479398,3.097243071,0.000229016,-0.004026121,-1.244437005
name_8,C,11,-0.00267966,-7.31E-06,1.52E-06,0.797223055,2.522264885,3.72E-05,-0.004114994,-1.361267056
name_8,C,12,-0.002197254,-6.28E-06,1.07E-06,0.775628054,2.330241182,6.48E-06,-0.003300499,-1.116204964
name_8,C,13,-0.004215654,-1.24E-05,3.97E-06,0.850392015,2.684119258,0.000282759,-0.006723949,-2.141552067
name_8,C,14,-0.003345753,-8.91E-06,2.19E-06,0.980369475,2.781891905,2.18E-05,-0.004779971,-1.699642575
name_8,C,15,-0.002290185,-6.22E-06,1.11E-06,0.937784332,2.869453419,0.000141926,-0.003428673,-1.163413944
name_8,B,1,-0.000136114,-2.50E-06,2.79E-07,-0.096762619,2.885276404,0.000988239,-0.001533576,-0.069146087
name_8,B,2,0.000401529,-2.05E-06,6.62E-07,-0.576342454,3.142067802,0.001692453,-0.00200834,0.203976849
name_8,B,3,-0.000729048,-1.16E-06,1.25E-07,0.330806553,2.688532045,4.09E-05,-0.001410842,-0.370356247
name_8,B,4,1.79E-05,-5.23E-06,9.01E-07,0.250920527,2.549127484,0.001984381,-0.002189323,0.00907548
name_8,B,5,-0.000322754,-4.39E-06,6.04E-07,0.079412181,1.812026125,0.001054004,-0.001879327,-0.163959081
name_8,B,6,-0.002587922,-5.32E-06,7.89E-07,1.284833425,4.126390253,3.82E-05,-0.0036993,-1.314664221
name_8,B,7,-0.000264079,-4.08E-06,7.18E-07,0.408750476,3.709464503,0.001847408,-0.002567403,-0.134152249
name_8,B,8,-0.002078032,-6.19E-06,1.06E-06,0.941714598,2.751164122,0.000412914,-0.003222655,-1.055640116
name_8,B,9,-0.003579878,-8.13E-06,1.79E-06,1.177593143,3.421750168,5.37E-05,-0.004983142,-1.818577848
name_8,B,10,-0.000575912,-3.77E-06,7.99E-07,1.215458073,3.708260836,0.001910149,-0.001675719,-0.292563485
name_8,B,11,-0.002683424,-7.14E-06,1.56E-06,1.180229711,2.973168707,0.000263486,-0.003832185,-1.363179338
name_8,B,12,-0.003385495,-8.94E-06,2.16E-06,0.901653547,2.425134323,3.15E-05,-0.00496004,-1.719831258
name_8,B,13,-0.001120504,-4.86E-06,1.08E-06,1.068917973,3.144785869,0.001535069,-0.002376673,-0.569215944
name_8,B,14,-0.001010296,-2.63E-06,5.48E-07,-0.257293209,1.884467908,0.000149092,-0.00231483,-0.513230147
name_8,B,15,-0.000634687,-2.05E-06,2.29E-07,0.08571165,1.924348286,0.000268386,-0.001307239,-0.322421064
name_7,A,1,0.001868204,-1.76E-06,6.09E-07,0.252130206,3.50108624,0.003584481,-8.11E-05,0.949047449
name_7,A,2,-5.15E-06,-4.19E-06,5.07E-07,-0.427044205,1.88305731,0.00102842,-0.00165852,-0.002615276
name_7,A,3,5.37E-05,-7.93E-07,4.50E-08,1.261112564,3.829873638,0.000663779,-0.000181139,0.027271334
name_7,A,4,-0.000377289,-3.28E-06,2.96E-07,0.877669566,2.743371701,0.000918883,-0.001269757,-0.191662589
name_7,A,5,-0.000195331,-1.77E-06,1.26E-07,0.729086934,3.442367935,0.000727325,-0.000802077,-0.099228282
name_7,A,6,0.000209063,-5.92E-07,2.71E-08,0.775575395,3.281097775,0.000652715,-9.80E-05,0.106204003
name_7,A,7,0.000316219,-1.86E-07,4.44E-08,-0.146419795,2.917051195,0.000767193,-0.00030883,0.160639387
name_7,A,8,0.000504248,2.66E-07,1.86E-08,-1.705442108,8.130223883,0.000764291,-0.000111866,0.256157842
name_7,A,9,0.000142088,-1.21E-09,1.81E-08,0.348357902,2.947347699,0.000480351,-9.51E-05,0.072180587
name_7,A,10,0.001509957,3.39E-06,3.27E-07,-0.711447611,3.115456205,0.00235851,-8.95E-05,0.76705828
name_7,A,11,0.000978243,2.09E-06,1.45E-07,-0.728483927,3.307761993,0.00156124,-7.61E-05,0.49694769
name_7,A,12,0.000102867,-4.91E-07,2.77E-08,0.844014947,4.922394924,0.000587916,-0.000372895,0.052256521
name_7,A,13,0.001259027,1.43E-06,1.72E-07,-0.970196333,4.206522723,0.001812213,-7.92E-05,0.639585583
name_7,A,14,0.000534076,-5.94E-07,5.46E-08,0.255328695,4.516637029,0.001169635,-0.000103955,0.271310662
name_7,A,15,-8.59E-05,-3.48E-06,3.04E-07,0.16901207,1.863541505,0.000923059,-0.001065945,-0.043639808
name_7,B,1,-0.000230635,-1.26E-06,3.39E-07,0.537230609,2.460626931,0.001136759,-0.001161066,-0.117162727
name_7,B,2,0.000599434,-4.79E-06,8.46E-07,-0.343375979,1.536991407,0.00187804,-0.0008645,0.304512325
name_7,B,3,-0.000287642,-1.06E-06,9.19E-08,0.529116697,2.395716858,0.000405887,-0.00075366,-0.146121904
name_7,B,4,-0.000135595,-2.75E-06,2.35E-07,0.842301949,2.65897505,0.00103573,-0.000787211,-0.068882222
name_7,B,5,-0.00032142,-2.05E-06,2.27E-07,0.449842499,2.079573983,0.000683778,-0.000955471,-0.163281303
name_7,B,6,5.02E-05,-4.54E-07,4.80E-08,-0.141508842,2.148252515,0.00040675,-0.000388228,0.025490006
name_7,B,7,0.000175958,7.03E-08,9.75E-08,0.437446794,2.203830874,0.000848208,-0.000257942,0.089386883
name_7,B,8,0.000307321,7.69E-07,8.65E-08,0.766626133,3.259830817,0.001054682,-0.000165609,0.156119092
name_7,B,9,0.000503536,1.01E-06,9.27E-08,1.073842023,3.98267454,0.001339167,-0.000158146,0.255796378
name_7,B,10,0.000833398,2.77E-06,3.56E-07,1.324542517,4.304707959,0.002534371,-0.000192444,0.423366032
name_7,B,11,0.000484937,1.90E-06,2.29E-07,1.717611,5.321982659,0.001893056,-0.000115852,0.246348008
name_7,B,12,-0.000165832,-3.79E-07,6.64E-08,-0.263031962,1.731301258,0.000276501,-0.000646312,-0.08424273
name_7,B,13,0.000715628,-9.26E-07,1.76E-07,-0.266184393,1.859115705,0.001371039,-0.000190775,0.363538823
name_7,B,14,4.17E-05,-1.69E-06,1.26E-07,0.029932814,2.194722243,0.000753291,-0.000634118,0.021162994
name_7,B,15,-0.000165748,-4.86E-06,6.12E-07,-0.445212833,1.883649562,0.000893728,-0.001717528,-0.084199815
name_7,C,1,-0.001526199,2.90E-06,6.85E-07,-0.402998696,2.285926886,0.000337185,-0.003226005,-0.775308971
name_7,C,2,0.000646521,-1.50E-06,4.13E-07,0.178651584,1.858948329,0.001857156,-0.000498428,0.328432886
name_7,C,3,-0.000428587,-1.52E-06,2.44E-07,0.856252269,3.509692217,0.00088335,-0.001335654,-0.217722028
name_7,C,4,0.000173313,-2.39E-06,3.86E-07,1.031848159,3.249583993,0.001759848,-0.000728792,0.088043034
name_7,C,5,-5.91E-05,-2.12E-06,5.48E-07,1.09319322,3.532076205,0.001934889,-0.001014541,-0.030024184
name_7,C,6,0.000568286,1.95E-07,9.65E-08,-0.018881564,3.027647355,0.001194543,-0.000506214,0.288689352
name_7,C,7,0.000397191,1.17E-06,3.79E-07,0.074533684,1.753700189,0.001556634,-0.000553766,0.201773272
name_7,C,8,0.000389567,8.25E-07,1.53E-07,0.292080888,1.879662856,0.001177558,-0.000363843,0.197900058
name_7,C,9,0.000581305,6.08E-07,8.65E-08,0.22879085,2.857804658,0.001233743,-0.000353555,0.295302786
name_7,C,10,0.001184386,4.36E-06,7.10E-07,0.357683052,2.017969265,0.002808141,-0.000403697,0.601668303
name_7,C,11,0.000338198,1.77E-06,4.03E-07,0.610493261,2.611199473,0.001880938,-0.000529136,0.171804422
name_7,C,12,0.000458685,-7.69E-08,1.99E-07,0.758201641,2.841477441,0.00159634,-0.000664683,0.233012181
name_7,C,13,0.001122059,1.54E-06,2.49E-07,0.738812843,4.328747648,0.002494244,-0.000385705,0.570005851
name_7,C,14,0.000395396,-1.38E-06,2.74E-07,1.196767148,3.883071763,0.001872911,-0.000650931,0.200861396
name_7,C,15,-0.000471848,-3.21E-06,2.77E-07,0.205405869,2.171493718,0.000564729,-0.001436839,-0.239698828
name_9,B,1,0.002516757,6.78E-06,4.07E-06,-0.085093034,1.545326116,0.00556535,-0.000832597,1.278512746
name_9,B,2,0.00084218,7.00E-06,5.20E-06,0.206078367,1.979554853,0.004938867,-0.002483009,0.427827602
name_9,B,3,0.000725522,4.31E-06,2.35E-06,-0.241424722,2.021833838,0.003006859,-0.002267261,0.368565097
name_9,B,4,-0.001703925,-3.41E-06,2.73E-06,-0.256999826,2.070777516,0.000983555,-0.00500278,-0.865593759
name_9,B,5,0.001576329,6.29E-06,2.32E-06,0.193647019,1.704546777,0.003828152,-0.000867219,0.800775131
name_9,B,6,0.00105215,6.87E-06,3.39E-06,-0.003812103,1.701461534,0.0035633,-0.002179472,0.534492021
name_9,B,7,-0.001676346,-1.34E-06,3.23E-06,-0.392644552,1.828842749,0.000937124,-0.005114764,-0.851583958
name_9,B,8,0.000545669,4.71E-06,2.39E-06,-0.242985438,1.738472866,0.002566944,-0.002275564,0.277199663
name_9,B,9,0.001559644,8.43E-06,4.50E-06,0.064320669,1.644185877,0.004499012,-0.002085449,0.792299139
name_9,B,10,0.000316434,4.81E-06,3.34E-06,-0.25217991,1.865365677,0.003141899,-0.003091266,0.160748611
name_9,B,11,0.002304599,1.08E-05,4.18E-06,0.553019848,1.706196675,0.005606982,-0.000260702,1.170736506
name_9,B,12,0.001430074,1.22E-05,5.07E-06,0.689498976,1.76162395,0.005285937,-0.001215503,0.726477761
name_9,B,13,-0.000217118,2.44E-06,2.41E-06,0.007626645,2.075129517,0.002617651,-0.003133603,-0.110295975
name_9,B,14,0.001376712,1.34E-05,5.99E-06,0.667502404,1.673141172,0.005475739,-0.001229408,0.699369608
name_9,B,15,0.001516795,8.77E-06,2.83E-06,0.700853978,1.937640331,0.004736857,-0.000462169,0.770531676
name_9,A,1,-0.001037256,-1.79E-06,6.45E-07,-0.117226108,2.299637375,0.000463748,-0.002681537,-0.526926125
name_9,A,2,-0.002431313,-3.04E-06,1.01E-06,0.947741731,3.193614098,0.000366777,-0.003937291,-1.23510683
name_9,A,3,-0.001126178,-1.07E-06,4.68E-07,-0.111357258,2.009716762,0.000181442,-0.002328348,-0.572098553
name_9,A,4,-0.002012691,-4.79E-06,1.85E-06,0.136428453,1.558618315,0.000229285,-0.004180391,-1.022447104
name_9,A,5,-0.000699642,-1.81E-07,3.91E-07,-0.242809792,2.17594637,0.000861097,-0.001830341,-0.355418273
name_9,A,6,-5.72E-06,5.28E-06,1.61E-06,-0.432969536,2.831886443,0.002968366,-0.002825724,-0.002906854
name_9,A,7,-0.001747983,-3.27E-06,1.31E-06,0.016737515,1.612518914,0.000328925,-0.003531321,-0.887975123
name_9,A,8,-0.000955934,4.95E-06,1.67E-06,0.024089126,2.834204935,0.002557489,-0.003465843,-0.485614271
name_9,A,9,0.000399834,6.56E-06,2.34E-06,-0.232660346,2.46125942,0.003749153,-0.002731526,0.20311577
name_9,A,10,-0.000609533,1.57E-06,1.04E-06,-0.292279758,1.835395454,0.000913521,-0.002432489,-0.309642718
name_9,A,11,-0.000519261,3.73E-06,1.19E-06,-0.204047095,2.348682293,0.001770073,-0.002705506,-0.263784629
name_9,A,12,-0.00085026,3.52E-06,9.34E-07,0.127629242,2.200680339,0.001172253,-0.002508154,-0.43193215
name_9,A,13,-0.001384148,-1.25E-06,1.75E-06,-0.715379106,2.559811828,0.000329354,-0.004554328,-0.703147218
name_9,A,14,-0.001097092,3.91E-06,1.33E-06,-0.173512296,2.131149411,0.00102618,-0.003377666,-0.557322712
name_9,A,15,-0.000248244,3.38E-06,7.22E-07,-0.730099333,2.760410483,0.001047328,-0.002233064,-0.126107835
name_9,C,1,0.001661134,3.24E-06,8.54E-07,-0.125136456,1.774415561,0.00311736,-5.22E-05,0.843855985
name_9,C,2,0.000409496,1.94E-06,5.56E-07,0.326869241,1.751018537,0.001830498,-0.000521468,0.208024028
name_9,C,3,0.001156202,8.95E-06,2.34E-06,0.726726008,1.837961225,0.003790451,-0.00038717,0.587350774
name_9,C,4,-0.000212692,3.44E-06,1.03E-06,0.378220485,1.786438307,0.001721762,-0.001627385,-0.10804741
name_9,C,5,0.000916415,5.83E-06,1.12E-06,0.759003812,1.958946356,0.002917095,-0.000259948,0.465538677
name_9,C,6,0.003382997,1.57E-05,5.78E-06,0.400376527,1.593669942,0.007338638,-0.000226317,1.718562224
name_9,C,7,0.000336793,5.73E-06,1.38E-06,0.533814157,1.860705854,0.002605752,-0.000939426,0.171090897
name_9,C,8,0.002291213,1.52E-05,5.88E-06,0.503773065,1.608611997,0.006488456,-0.000265427,1.163936083
name_9,C,9,0.004792789,1.94E-05,9.06E-06,0.355332645,1.704234624,0.010002752,-0.000324197,2.434736921
name_9,C,10,0.001313882,9.11E-06,2.40E-06,0.49403333,1.780335586,0.004203008,-0.000581297,0.667452075
name_9,C,11,0.001810405,8.92E-06,2.17E-06,0.619413203,1.888533861,0.004684926,-0.000303411,0.919685756
name_9,C,12,0.00202131,1.21E-05,3.62E-06,0.483377404,1.696035653,0.005477092,-7.23E-05,1.026825559
name_9,C,13,0.000268897,4.81E-06,1.14E-06,0.423826471,1.919560503,0.002354916,-0.001231274,0.136599654
name_9,C,14,0.002282458,1.39E-05,4.74E-06,0.423491725,1.68006831,0.006042249,-0.000564283,1.159488898
name_9,C,15,0.001462852,5.55E-06,9.07E-07,0.651675206,2.085067028,0.003367024,-0.00018946,0.743128606
name_10,B,1,-0.000378209,-1.03E-05,3.01E-06,0.361042398,1.760027502,0.002789314,-0.002626585,-0.192130287
name_10,B,2,-0.001235239,-8.35E-06,1.81E-06,0.173394194,1.466756683,0.000912468,-0.002932351,-0.627501274
name_10,B,3,-0.001660297,-1.20E-05,3.38E-06,-0.007821689,1.379198565,0.000871244,-0.00419683,-0.843430745
name_10,B,4,-0.000851488,-7.04E-06,1.32E-06,0.066866289,1.60031439,0.000844936,-0.002702937,-0.432555872
name_10,B,5,-0.001818904,-1.27E-05,3.81E-06,0.150414487,1.449585875,0.00119669,-0.004588512,-0.924003249
name_10,B,6,-0.000918509,-8.09E-06,1.53E-06,0.025452303,1.580472907,0.001086415,-0.002719808,-0.466602521
name_10,B,7,-0.001427316,-1.26E-05,4.04E-06,0.341931381,1.709782952,0.002288633,-0.004507417,-0.725076498
name_10,B,8,-0.001062282,-1.08E-05,2.97E-06,0.203606959,1.569579425,0.001850845,-0.003468485,-0.539639467
name_10,B,9,-0.001751275,-1.23E-05,3.44E-06,-0.032900337,1.460433736,0.0008451,-0.004677798,-0.889647597
name_10,B,10,-0.000712447,-1.33E-05,5.72E-06,0.670886658,2.036525724,0.003982802,-0.003295905,-0.361922888
name_10,B,11,-0.001914809,-1.68E-05,6.64E-06,0.159062333,1.594352091,0.002374955,-0.00570177,-0.972723112
name_10,B,12,-0.001755485,-1.32E-05,4.06E-06,-0.039856243,1.471937475,0.001172015,-0.004887776,-0.891786297
name_10,B,13,-0.001739385,-1.08E-05,2.70E-06,0.184353863,1.681393646,0.001051633,-0.004522753,-0.883607425
name_10,B,14,-0.001342488,-9.93E-06,2.29E-06,-0.081136377,1.477949005,0.000802679,-0.003592418,-0.681983747
name_10,B,15,-0.000702043,-6.62E-06,1.06E-06,0.155128411,1.963623817,0.001077189,-0.002751145,-0.356637712
name_10,C,1,0.001256774,-5.10E-06,1.35E-06,0.841136268,2.476006946,0.00380319,-5.95E-05,0.638441309
name_10,C,2,0.000114272,-2.60E-06,4.39E-07,0.709372613,2.50179544,0.001583537,-0.000738027,0.058049936
name_10,C,3,-0.000628596,-6.36E-06,1.13E-06,0.082968609,1.720086742,0.000960131,-0.002432867,-0.319326553
name_10,C,4,-0.0007409,-5.00E-06,6.12E-07,0.153558505,1.330504105,0.00039454,-0.001786776,-0.376377193
name_10,C,5,5.83E-05,-5.49E-06,9.54E-07,0.062377888,1.619079087,0.001525454,-0.001514051,0.02963001
name_10,C,6,-0.000567672,-4.56E-06,5.56E-07,-0.08613023,1.47385904,0.000562442,-0.00178204,-0.288377234
name_10,C,7,-0.000898733,-7.61E-06,1.46E-06,0.050538881,1.269736764,0.00078465,-0.002581061,-0.456556273
name_10,C,8,-0.00102227,-7.25E-06,1.22E-06,0.052824822,1.382245802,0.000553337,-0.002612668,-0.519313378
name_10,C,9,-0.001050799,-4.08E-06,4.21E-07,0.551188369,2.031127043,0.000310847,-0.001900129,-0.533805971
name_10,C,10,-0.000711538,-1.08E-05,3.11E-06,0.523385223,1.866872185,0.002735021,-0.002751264,-0.361461448
name_10,C,11,-0.001380053,-9.85E-06,2.34E-06,0.407097494,1.660324545,0.001290307,-0.003438888,-0.701066986
name_10,C,12,-0.001323957,-6.00E-06,8.47E-07,0.301523511,1.612344777,0.000343208,-0.002703748,-0.672570121
name_10,C,13,-0.002221205,-1.19E-05,3.24E-06,0.352927857,1.623770059,0.000726133,-0.004507417,-1.128372273
name_10,C,14,-0.001166381,-7.70E-06,1.40E-06,-0.109429787,1.5950316,0.000441571,-0.003192679,-0.592521787
name_10,C,15,-0.001240717,-7.09E-06,1.14E-06,0.138860944,1.445657166,0.000346364,-0.002771361,-0.630284479
name_10,A,1,-0.002630004,-8.42E-06,1.90E-06,0.074266567,2.668928575,5.95E-05,-0.005701749,-1.336042062
name_10,A,2,-0.000185991,-5.07E-06,8.69E-07,0.071411034,2.261496254,0.00148425,-0.002182343,-0.094483654
name_10,A,3,0.000357883,-8.38E-07,2.93E-07,-0.544953672,2.671347214,0.001174497,-0.000962979,0.181804743
name_10,A,4,0.000582165,5.72E-07,2.88E-07,-0.427874909,2.081052494,0.001373174,-0.000461515,0.295740008
name_10,A,5,0.000271542,7.25E-08,2.16E-07,0.04379085,2.259852405,0.001099095,-0.00068375,0.137943339
name_10,A,6,-0.000109735,1.14E-06,3.58E-07,-0.070994697,1.768833007,0.000898154,-0.001167816,-0.055745307
name_10,A,7,-0.000504211,-1.40E-07,6.97E-07,-0.294992844,2.257438424,0.000841667,-0.00223996,-0.256139404
name_10,A,8,-0.0006729,1.35E-06,6.65E-07,0.037332151,1.822820044,0.000748174,-0.002008658,-0.341833184
name_10,A,9,-0.000412988,8.41E-07,1.68E-07,-0.466269898,1.850353879,9.69E-05,-0.001215109,-0.209798106
name_10,A,10,0.000900862,2.02E-06,1.02E-06,0.290134554,2.283446934,0.003011795,-0.000768823,0.457637914
name_10,A,11,1.74E-05,-6.31E-07,2.45E-07,-0.429824995,3.27248321,0.000863033,-0.0012847,0.008828606
name_10,A,12,-0.000310813,3.40E-07,2.68E-07,-0.010870498,2.137437249,0.000517388,-0.001398511,-0.15789298
name_10,A,13,-0.000463601,-1.16E-06,3.69E-07,-0.48476268,3.335929922,0.000737793,-0.001971201,-0.235509538
name_10,A,14,-8.54E-06,-4.42E-07,3.91E-07,-0.206358119,2.855873569,0.001066926,-0.001485376,-0.004337763
name_10,A,15,0.000402593,7.80E-07,2.03E-07,-0.193281378,2.067120357,0.001207067,-0.000444009,0.204517336
name_11,C,1,0.004404892,2.64E-05,2.12E-05,0.368288764,2.129956987,0.014358251,-0.001626714,2.237685356
name_11,C,2,,,,,,,,
name_11,C,3,0.004426936,2.49E-05,1.52E-05,-0.106838455,1.315234504,0.00963975,-0.000666802,2.248883368
name_11,C,4,0.001291998,3.91E-06,4.17E-07,-0.279281818,1.853551183,0.002350463,-0.000137136,0.65633483
name_11,C,5,0.004391047,1.93E-05,9.05E-06,-0.228943923,1.387266989,0.00827113,-1.94E-05,2.230651963
name_11,C,6,0.003437142,1.63E-05,6.65E-06,-0.258263212,1.379350408,0.006748558,-0.000181596,1.74606794
name_11,C,7,0.002654839,7.48E-06,1.64E-06,-0.615282114,2.041283691,0.004412839,-7.63E-05,1.348658141
name_11,C,8,0.002045055,7.23E-06,1.49E-06,-0.29942543,1.594602907,0.003829253,-9.37E-05,1.03888818
name_11,C,9,0.002575092,1.00E-05,3.09E-06,-0.330678689,1.546135704,0.004928213,-9.07E-05,1.308146788
name_11,C,10,0.002981544,7.80E-06,2.19E-06,-0.444608476,1.98982459,0.005072394,-0.000103652,1.514624197
name_11,C,11,0.003118824,8.62E-06,2.85E-06,-0.360630518,1.806851259,0.005668042,-9.39E-05,1.584362619
name_11,C,12,0.002842641,1.25E-05,4.20E-06,-0.352830035,1.46465435,0.005508252,-9.98E-05,1.444061829
name_11,C,13,0.002714671,6.21E-06,1.48E-06,-0.7951302,2.45691638,0.004210775,-3.70E-05,1.379052777
name_11,C,14,0.002215712,9.14E-06,2.17E-06,-0.341811038,1.430766194,0.004134576,-5.96E-05,1.125581552
name_11,C,15,0.001755177,3.43E-06,6.40E-07,-0.301665941,2.261537174,0.003099646,-9.06E-05,0.891629964
name_11,A,1,0.000622623,-3.27E-06,3.68E-06,-0.179568384,2.583394925,0.004635641,-0.003431312,0.316292523
name_11,A,2,,,,,,,,
name_11,A,3,0.002117898,8.82E-06,1.97E-06,0.202242067,1.854034481,0.004538397,-0.000141451,1.075892003
name_11,A,4,0.000663976,5.94E-07,6.38E-08,-0.896146027,3.580501468,0.001090937,-0.000133321,0.337299777
name_11,A,5,0.001966929,6.44E-06,1.10E-06,-0.244521258,1.926216765,0.003375989,-7.26E-06,0.999200013
name_11,A,6,0.001292043,5.61E-06,8.28E-07,0.243145711,1.544107785,0.002664035,-3.56E-05,0.656357697
name_11,A,7,0.001305752,2.52E-06,3.16E-07,-0.788730873,2.426978116,0.001950573,-9.91E-05,0.663322116
name_11,A,8,0.000816415,2.20E-06,2.27E-07,-0.010034291,1.628402472,0.00160348,-8.04E-05,0.414738835
name_11,A,9,0.001455088,4.54E-06,6.28E-07,-0.028697736,1.676096524,0.002676694,-8.07E-05,0.739184631
name_11,A,10,0.001195645,1.38E-06,2.48E-07,-0.374527504,2.343543329,0.001978037,-9.99E-05,0.607387612
name_11,A,11,0.001265628,2.75E-06,3.92E-07,-0.278416064,1.92291942,0.002266369,-2.92E-05,0.642939052
name_11,A,12,0.001473957,4.68E-06,6.29E-07,0.041743694,1.888733172,0.002763895,-1.52E-05,0.748770281
name_11,A,13,0.001078273,9.93E-07,1.55E-07,-0.744075321,3.288357123,0.001638869,-6.83E-05,0.547762522
name_11,A,14,0.000990642,2.69E-06,2.61E-07,-0.187334494,1.846034826,0.001731125,-2.91E-05,0.503245931
name_11,A,15,0.000681332,4.55E-07,9.76E-08,-0.197013092,3.099918183,0.001356591,-2.64E-05,0.346116812
name_11,B,1,0.005166291,1.85E-05,1.05E-05,-0.8972105,2.127862179,0.008408797,-0.0009031,2.624475693
name_11,B,2,0.032504315,0.000119866,0.000352558,-0.618068362,1.91917271,0.057376541,-0.002150906,16.51219182
name_11,B,3,0.008011325,3.10E-05,2.29E-05,-0.649092661,1.907723569,0.013706579,-0.000637541,4.069752931
name_11,B,4,0.002329238,7.02E-06,1.42E-06,-1.17248924,3.014637015,0.003493914,-0.00042048,1.183253149
name_11,B,5,0.005801024,1.94E-05,9.67E-06,-0.876783054,2.196206169,0.009212982,-0.000231403,2.946920192
name_11,B,6,0.005860399,2.11E-05,1.19E-05,-0.820486159,2.022595092,0.009608833,-0.000444853,2.977082766
name_11,B,7,0.005481535,1.62E-05,7.83E-06,-1.044935635,2.51711426,0.008007283,-0.000410991,2.784619701
name_11,B,8,0.004076182,1.22E-05,5.10E-06,-0.95837471,2.355144652,0.006611942,-0.000416307,2.070700337
name_11,B,9,0.004835037,1.53E-05,7.63E-06,-0.895175324,2.181196875,0.007815973,-0.000411237,2.456198568
name_11,B,10,0.005627933,1.31E-05,7.09E-06,-1.16340409,2.958133481,0.008638886,-0.000235051,2.858990087
name_11,B,11,0.005399599,1.29E-05,6.31E-06,-1.212457171,3.022247919,0.008144031,-0.000137088,2.742996289
name_11,B,12,0.004705168,2.12E-05,1.04E-05,-0.411571821,1.778381773,0.009272865,-0.000661644,2.390225427
name_11,B,13,0.004339868,1.10E-05,4.32E-06,-1.206317047,2.937791722,0.006336177,-0.000283707,2.204653046
name_11,B,14,0.002715843,1.13E-05,3.05E-06,-0.58092807,1.823459558,0.004859249,-0.000368431,1.37964822
name_11,B,15,0.003653815,9.69E-06,3.70E-06,-0.957559101,2.462432944,0.005900949,-0.000104235,1.856138031
name_12,C,1,-0.000872711,-5.40E-06,6.57E-07,-0.394962262,1.99786207,0.000218312,-0.002429907,-0.443337231
name_12,C,2,-0.002677414,-7.56E-06,1.81E-06,0.241045326,2.188775284,0.000183446,-0.004954229,-1.360126349
name_12,C,3,-0.000202791,2.80E-07,2.91E-07,-0.290102137,2.936540134,0.000928136,-0.001470525,-0.103017653
name_12,C,4,-0.000641256,-2.34E-06,1.70E-07,0.566275639,2.033349727,0.000143863,-0.001180753,-0.325758043
name_12,C,5,0.00023078,-7.06E-07,5.73E-08,0.481574271,2.075537115,0.000697021,-9.49E-05,0.11723604
name_12,C,6,-7.85E-05,1.83E-07,5.00E-07,-1.799600717,5.342891332,0.000586299,-0.002229331,-0.039857531
name_12,C,7,-0.000240253,-4.90E-07,2.89E-07,-1.40021073,4.425648397,0.000365207,-0.001792048,-0.122048383
name_12,C,8,-0.000791275,1.21E-06,2.41E-06,-1.818400509,5.425750928,0.000692777,-0.005526729,-0.401967453
name_12,C,9,0.000148192,1.61E-06,1.64E-07,0.059422594,1.838632928,0.000720536,-0.000588178,0.07528144
name_12,C,10,0.003695629,9.08E-06,1.15E-05,1.53785583,5.271083597,0.014370324,-0.000379224,1.877379495
name_12,C,11,-0.000657665,-9.39E-07,1.09E-06,-1.380099216,4.282502033,0.000693673,-0.00362819,-0.334094024
name_12,C,12,-0.000406453,-1.58E-06,4.17E-07,-0.619239253,2.710324636,0.000474504,-0.001888511,-0.206477938
name_12,C,13,0.00100065,-8.62E-08,3.99E-06,2.170721586,6.882246189,0.007771972,-0.000937564,0.508330124
name_12,C,14,-1.76E-05,5.71E-07,8.98E-08,-0.663592247,2.404877875,0.000461389,-0.000692455,-0.008916701
name_12,C,15,-0.001483486,-5.61E-06,7.17E-07,0.122814565,2.271561075,1.83E-05,-0.002976532,-0.75361106
name_12,B,1,0.000529045,1.47E-06,8.65E-08,-0.988371383,3.127342425,0.000922833,-0.000189882,0.268755007
name_12,B,2,0.001846462,1.06E-05,2.99E-06,0.227041125,1.518333364,0.004842878,-0.000489794,0.938002529
name_12,B,3,0.002428367,1.12E-05,3.28E-06,0.326032024,1.297129895,0.005014501,-5.89E-05,1.233610426
name_12,B,4,0.002241528,7.00E-06,1.14E-06,-0.544416662,2.125190439,0.003746147,-0.000107442,1.138696411
name_12,B,5,0.001827901,5.71E-06,7.61E-07,-0.002383069,2.34469721,0.003403356,-6.49E-05,0.928573584
name_12,B,6,0.000856101,3.67E-06,4.91E-07,0.889231058,2.877829163,0.002695414,-7.03E-05,0.434899356
name_12,B,7,0.002027452,5.86E-06,9.15E-07,0.358950585,2.546341828,0.004000836,-0.000417965,1.029945363
name_12,B,8,0.000321539,1.42E-06,7.21E-07,0.200544332,2.155074655,0.002350943,-0.000913597,0.163341916
name_12,B,9,0.001053928,5.19E-06,8.13E-07,0.826770513,2.362780647,0.003072973,-0.000193852,0.535395341
name_12,B,10,0.002517121,6.65E-06,1.60E-06,-0.365089966,2.188440549,0.004462927,-0.000298694,1.278697608
name_12,B,11,0.000348094,3.24E-06,4.36E-07,0.477784238,2.243475498,0.001700103,-0.000742532,0.176831542
name_12,B,12,0.001508218,6.28E-06,9.46E-07,0.593692133,2.175606888,0.003446337,-5.22E-05,0.766174909
name_12,B,13,0.001606325,4.90E-06,6.89E-07,-0.142755944,2.057750377,0.003151169,-0.000313023,0.81601308
name_12,B,14,0.001473373,6.41E-06,1.01E-06,0.494943944,1.789571923,0.003351995,-9.78E-05,0.748473325
name_12,B,15,0.001222402,7.08E-06,1.31E-06,0.402485265,1.329193041,0.002864707,-3.78E-05,0.620980251
name_12,A,1,0.001183072,3.79E-06,4.66E-07,-1.099021267,3.992515471,0.002444401,-0.000618616,0.601000714
name_12,A,2,-0.000975298,-3.43E-06,2.70E-06,0.610856628,3.026752223,0.004230301,-0.003130741,-0.495451442
name_12,A,3,-0.004150649,-7.69E-06,3.32E-06,0.754056464,2.606605281,0.000172402,-0.006502678,-2.108529638
name_12,A,4,-0.000187788,7.89E-07,4.88E-08,0.24206349,1.883373149,0.000241177,-0.000516232,-0.095396422
name_12,A,5,-0.001666487,-2.40E-06,2.70E-07,1.448463577,5.703310355,3.80E-05,-0.002448502,-0.846575549
name_12,A,6,-0.002974873,-4.55E-06,9.57E-07,1.286423362,4.444972202,8.56E-05,-0.004335297,-1.511235562
name_12,A,7,-0.002697658,-4.78E-06,7.67E-07,1.363222757,4.987586347,6.94E-05,-0.004001888,-1.370410208
name_12,A,8,-0.004389088,-8.36E-06,2.43E-06,1.122863152,3.893251817,0.000192832,-0.006548726,-2.229656542
name_12,A,9,-0.002253039,-6.13E-06,1.02E-06,1.058181011,3.054597952,4.31E-05,-0.003446524,-1.144543862
name_12,A,10,,,,,,,,
name_12,A,11,-0.000826726,-4.17E-06,9.42E-07,0.81237663,2.893944795,0.00163578,-0.002133214,-0.419976687
name_12,A,12,-0.002465607,-6.92E-06,1.15E-06,0.645394217,2.613267376,2.58E-05,-0.004064213,-1.252528201
name_12,A,13,,,,,,,,
name_12,A,14,-0.003252664,-6.20E-06,1.59E-06,1.211942917,3.640015394,2.04E-05,-0.004718231,-1.652353327
name_12,A,15,-0.002162797,-4.58E-06,1.00E-06,0.671754331,2.559933566,0.000133573,-0.003406282,-1.098701039
name_13,A,1,-0.000953789,-5.08E-06,6.69E-07,0.245296205,1.621454176,0.000433287,-0.002009354,-0.484524787
name_13,A,2,-0.000425311,-2.99E-06,3.08E-07,0.27828581,2.406554669,0.000716762,-0.001356922,-0.216058098
name_13,A,3,7.80E-05,-2.09E-06,3.72E-07,-0.415690545,2.331998992,0.001166623,-0.001127098,0.039606538
name_13,A,4,-0.000976869,-3.92E-06,4.13E-07,0.811971492,2.369443308,0.000334116,-0.001836208,-0.496249518
name_13,A,5,-0.000388014,-9.18E-07,1.86E-07,-0.377736442,2.343722772,0.000294926,-0.001309274,-0.197111267
name_13,A,6,0.000348964,-5.25E-07,2.37E-07,-0.45740235,2.312943461,0.001137229,-0.000687172,0.177273766
name_13,A,7,-0.000563665,-1.81E-06,2.11E-07,0.394242505,2.509728569,0.000398307,-0.001373483,-0.286342041
name_13,A,8,0.00028424,1.19E-06,1.82E-07,-0.18989595,2.710426914,0.001091685,-0.000644278,0.144393869
name_13,A,9,0.000675337,9.25E-07,2.73E-07,-0.27091238,2.116139312,0.001498151,-0.00037349,0.343071308
name_13,A,10,0.000171402,-9.94E-07,2.79E-07,-0.012911097,2.28224928,0.00124577,-0.000788744,0.087072377
name_13,A,11,0.000197196,3.67E-07,1.18E-07,-0.769824207,3.248816531,0.000700728,-0.000670118,0.100175423
name_13,A,12,0.00022929,-8.45E-07,1.20E-07,-0.146101077,2.753018477,0.000952607,-0.000500549,0.116479292
name_13,A,13,3.20E-05,-8.06E-08,5.83E-08,-0.475557635,2.688917857,0.00047367,-0.000541179,0.016268266
name_13,A,14,4.70E-05,9.55E-07,1.13E-07,-0.644911887,3.193530891,0.000568554,-0.000794889,0.023877354
name_13,A,15,-0.00034814,-2.34E-06,1.41E-07,0.141885166,1.563169419,0.000253923,-0.000930482,-0.176854958
name_13,B,1,0.001257338,-9.22E-08,6.56E-07,-0.172074971,1.77914791,0.00263574,-0.000124041,0.638727914
name_13,B,2,0.001057231,2.37E-06,2.41E-07,-1.235002865,3.530901474,0.001631796,-8.73E-05,0.537073526
name_13,B,3,0.001524665,3.53E-06,4.30E-07,-0.506511092,2.626386393,0.002522556,-0.000242875,0.774529894
name_13,B,4,0.000380374,-9.66E-07,2.93E-07,-0.62193648,2.294946168,0.001236349,-0.000751877,0.193230178
name_13,B,5,0.001476269,1.88E-06,5.27E-07,-0.989249609,2.687971654,0.002185505,-9.80E-05,0.74994466
name_13,B,6,0.001987445,4.74E-06,8.08E-07,-0.734458349,2.819100585,0.003284581,-0.000235148,1.00962211
name_13,B,7,0.001635153,1.64E-06,7.96E-07,-0.840290864,2.29641832,0.002670031,-0.000199669,0.830657616
name_13,B,8,0.001577757,3.03E-06,4.36E-07,-0.877619369,3.268270854,0.002578966,-0.000151615,0.801500756
name_13,B,9,0.002564111,5.02E-06,1.15E-06,-0.966443718,3.145821303,0.0040539,-0.000232745,1.302568458
name_13,B,10,0.002368682,5.11E-06,1.32E-06,-0.945718852,2.782310235,0.003784529,-0.000161954,1.203290217
name_13,B,11,0.001537147,2.49E-06,4.75E-07,-0.965385306,2.653318948,0.002301353,-0.000161987,0.780870804
name_13,B,12,0.001413471,2.16E-06,3.83E-07,-1.173991734,3.072300637,0.002187652,-0.000163123,0.718043364
name_13,B,13,0.001379736,2.23E-06,4.62E-07,-0.974578694,2.743867377,0.002198189,-0.000121723,0.700905662
name_13,B,14,0.001424932,2.70E-06,3.44E-07,-1.353654611,3.486212025,0.001986968,-5.26E-05,0.723865635
name_13,B,15,0.001694544,3.81E-06,6.45E-07,-1.233056955,3.019005392,0.00244476,-8.95E-05,0.860828507
name_13,C,1,0.001255136,6.07E-06,1.23E-06,0.34011445,2.323551794,0.003669362,-0.000327765,0.637608978
name_13,C,2,0.001494656,6.72E-06,1.26E-06,0.067269444,1.797231135,0.003521394,-0.000378504,0.759285257
name_13,C,3,0.002438975,7.89E-06,1.83E-06,-0.015799849,1.736668414,0.004726333,-0.000404911,1.238999499
name_13,C,4,0.00047524,3.88E-06,6.52E-07,0.656407337,3.374321949,0.002488241,-0.000994596,0.241422087
name_13,C,5,0.000703401,3.42E-06,6.85E-07,0.417656777,2.76496655,0.00261631,-0.000835036,0.357327566
name_13,C,6,0.002617653,6.98E-06,1.62E-06,-0.129134591,2.020130221,0.004837969,-0.000337763,1.32976757
name_13,C,7,0.000785719,3.69E-06,6.27E-07,0.316919832,2.547872746,0.002573574,-0.000633162,0.399145017
name_13,C,8,0.001296044,6.33E-06,1.50E-06,0.254402644,1.917298513,0.003768583,-0.000584587,0.658390172
name_13,C,9,0.003297993,1.20E-05,3.72E-06,-0.108136524,1.809101055,0.006673971,-0.000247143,1.675380666
name_13,C,10,0.002782132,9.18E-06,2.05E-06,-0.193801479,1.820462045,0.005059413,-0.000320076,1.413323267
name_13,C,11,0.001885869,9.70E-06,2.41E-06,0.087369918,1.761799582,0.004733181,-0.000277235,0.958021473
name_13,C,12,0.002417322,1.25E-05,3.67E-06,0.210162305,1.588315636,0.005640395,-0.00012958,1.227999487
name_13,C,13,0.001235956,7.60E-06,1.62E-06,0.291611185,2.041447113,0.003850712,-0.000665518,0.627865477
name_13,C,14,0.001601286,1.19E-05,3.53E-06,0.129783528,1.56416297,0.004745723,-0.001070408,0.81345306
name_13,C,15,0.00098612,6.17E-06,1.01E-06,0.384757817,1.941542321,0.002958745,-0.000472393,0.5009488
name_14,A,1,0.000107625,-1.92E-06,1.61E-07,0.118565467,2.136466053,0.000904544,-0.000577125,0.054673652
name_14,A,2,-0.002053176,-3.34E-06,1.15E-06,0.501359403,2.218689835,0.000159643,-0.003657721,-1.043013489
name_14,A,3,-0.001562527,-2.38E-07,8.56E-07,0.470280726,2.144924842,0.000233191,-0.0029584,-0.793763683
name_14,A,4,-0.000692335,-1.23E-06,1.22E-07,0.572194644,2.616009665,6.94E-05,-0.001302882,-0.351706025
name_14,A,5,-0.000436649,-1.50E-06,1.78E-07,0.133679383,2.922258759,0.000534449,-0.0013392,-0.221817789
name_14,A,6,-0.000891291,2.76E-07,2.42E-07,0.448725034,2.327885924,6.03E-05,-0.001721648,-0.452775941
name_14,A,7,-0.000194792,2.72E-07,3.87E-08,0.593714114,2.674341039,0.000296223,-0.000508568,-0.098954116
name_14,A,8,-0.001348272,-4.10E-07,3.24E-07,0.866690402,3.069186943,8.10E-06,-0.002279901,-0.684922353
name_14,A,9,-0.001207927,-6.36E-07,3.67E-07,0.433377242,2.102390995,6.60E-06,-0.002122109,-0.613627138
name_14,A,10,-0.000727162,-9.43E-07,9.50E-08,0.421494497,2.838928219,3.30E-05,-0.001296766,-0.369398461
name_14,A,11,-0.001096766,-3.14E-06,2.78E-07,0.59245545,2.160375992,2.32E-05,-0.001773909,-0.557157335
name_14,A,12,-0.002010551,-3.09E-06,1.01E-06,0.530443299,1.972824288,1.09E-05,-0.003351095,-1.02136005
name_14,A,13,-0.001179831,-2.47E-06,2.05E-07,0.912007524,3.584880282,1.15E-05,-0.001882958,-0.599353939
name_14,A,14,-0.002066971,-3.73E-06,6.89E-07,1.094873306,3.260791248,4.98E-05,-0.00297707,-1.05002151
name_14,A,15,-0.000612197,-2.22E-06,1.61E-07,0.052084364,1.95018493,0.000128105,-0.001247618,-0.310995885
name_14,C,1,0.002454987,-3.74E-06,2.54E-06,-0.059548457,1.40905356,0.004724986,-8.94E-05,1.247133148
name_14,C,2,0.00060362,-2.53E-06,7.32E-07,0.551787798,3.503232551,0.002792373,-0.001123757,0.306638826
name_14,C,3,-0.000769599,-5.97E-07,3.90E-07,-0.063095725,2.555690315,0.000515736,-0.00207751,-0.390956246
name_14,C,4,0.000439376,-1.75E-07,6.85E-08,0.835370637,3.41955462,0.001141598,-0.000133245,0.223203162
name_14,C,5,0.000359688,-2.23E-06,2.97E-07,0.617142398,2.840442343,0.001695001,-0.000490379,0.182721392
name_14,C,6,-0.000616514,8.54E-08,2.17E-07,0.20241156,2.088068995,0.000335059,-0.001451013,-0.313189332
name_14,C,7,0.000775771,4.55E-08,9.82E-08,-0.331489017,2.908051048,0.001379807,-0.000175526,0.394091447
name_14,C,8,-0.000257047,4.52E-07,1.64E-07,-0.121958203,1.951993784,0.000373666,-0.001069803,-0.130579911
name_14,C,9,-0.000774324,5.14E-07,2.97E-07,0.058305445,1.61914589,0.000134195,-0.001654021,-0.393356561
name_14,C,10,-5.69E-05,-7.17E-07,7.20E-08,-0.086889105,2.222452286,0.000491607,-0.000621066,-0.028904716
name_14,C,11,-0.000503528,-1.66E-06,1.72E-07,0.192526618,2.036317067,0.000316906,-0.001256082,-0.255792341
name_14,C,12,-0.000302631,1.30E-06,3.20E-07,0.603472135,2.746308192,0.001055149,-0.001194047,-0.153736298
name_14,C,13,-0.00031307,-1.39E-06,1.20E-07,0.068356682,2.321503739,0.000421749,-0.000966107,-0.159039575
name_14,C,14,-0.000444753,-1.05E-06,2.21E-07,0.382225225,2.004280693,0.000497812,-0.001233677,-0.225934369
name_14,C,15,5.13E-05,-7.39E-06,1.84E-06,-0.170737066,2.025962464,0.002513653,-0.002473215,0.02607157
name_14,B,1,0.000572331,-3.84E-06,8.13E-07,0.846985201,2.536037451,0.002657037,-0.000641841,0.290744247
name_14,B,2,-0.00014741,-2.73E-06,9.37E-07,0.04549737,1.998139093,0.001679531,-0.001756303,-0.074884048
name_14,B,3,-0.000194168,1.63E-06,3.36E-07,0.229812827,1.72489852,0.000917763,-0.001064896,-0.098637477
name_14,B,4,0.000354974,-7.19E-07,1.54E-07,0.150546264,1.646467152,0.000978969,-0.000253363,0.180326886
name_14,B,5,0.000650353,-6.95E-07,2.62E-07,0.024927006,1.820149359,0.001561165,-0.000228617,0.33037916
name_14,B,6,-0.000295903,2.17E-07,2.96E-07,-0.387051181,1.612016182,0.000405255,-0.001284558,-0.150318976
name_14,B,7,0.000372553,-2.95E-07,1.02E-07,0.020190835,2.053367791,0.00094967,-0.000216984,0.189256808
name_14,B,8,0.000243692,9.70E-07,4.98E-07,-0.392124082,1.689222377,0.001142779,-0.001086636,0.123795508
name_14,B,9,-0.000609184,9.05E-07,4.46E-07,-0.222138883,1.522601786,0.000268081,-0.001730148,-0.309465529
name_14,B,10,-0.000415549,-1.18E-06,1.59E-07,0.342790567,2.06563006,0.000390605,-0.001044477,-0.211098765
name_14,B,11,-0.00066228,-1.38E-06,1.60E-07,0.542546529,2.338182306,0.00019523,-0.001239506,-0.336438249
name_14,B,12,-0.000299021,8.99E-07,6.37E-07,-0.091222236,1.559383788,0.000998641,-0.001457636,-0.151902601
name_14,B,13,-0.000623516,-2.15E-06,2.07E-07,0.683452892,1.950335684,0.000270839,-0.00114754,-0.316746292
name_14,B,14,-0.000437333,-6.40E-07,4.22E-07,-0.185952644,1.452411171,0.000441059,-0.001356941,-0.222165242
name_14,B,15,9.42E-05,-2.59E-06,4.90E-07,0.578481553,2.566652998,0.001685415,-0.001063174,0.047868996
name_15,B,1,0.000489156,3.25E-06,3.42E-07,-0.04170581,1.573024345,0.001396459,-0.000449232,0.248491035
name_15,B,2,0.001933263,4.10E-06,5.40E-07,-1.178093521,3.870935751,0.003303027,-4.52E-05,0.982097401
name_15,B,3,0.000508342,7.51E-06,1.50E-06,0.61139973,2.165627989,0.003191063,-0.000954333,0.258237937
name_15,B,4,5.93E-05,2.64E-06,2.35E-07,0.288896703,2.018409849,0.000995081,-0.000718089,0.030099362
name_15,B,5,0.001392846,8.37E-06,1.64E-06,0.124380308,1.561083574,0.003567768,-0.000447134,0.707565852
name_15,B,6,0.000515135,4.50E-06,5.76E-07,0.466890902,2.125259123,0.002161191,-0.000572092,0.261688391
name_15,B,7,0.000648131,6.42E-06,1.13E-06,0.24595493,1.748909586,0.002700845,-0.000837857,0.329250421
name_15,B,8,0.001183369,6.33E-06,9.89E-07,0.127193704,1.656864095,0.002952101,-0.000261115,0.601151369
name_15,B,9,0.000406379,4.15E-06,5.01E-07,0.376975355,1.866385482,0.001739345,-0.000558229,0.206440618
name_15,B,10,0.000898447,6.38E-06,1.05E-06,0.248790428,1.467177052,0.002604789,-0.000475932,0.45641106
name_15,B,11,0.002092016,1.31E-05,3.94E-06,0.075343376,1.383911345,0.005112094,-0.000545957,1.062743918
name_15,B,12,0.001017269,8.24E-06,1.65E-06,0.077069161,1.398160239,0.002955247,-0.000783728,0.516772526
name_15,B,13,0.00119718,5.89E-06,8.35E-07,-0.138573367,1.332096043,0.002408644,-0.000114363,0.608167321
name_15,B,14,0.000784805,3.62E-06,3.52E-07,0.239729978,1.668763466,0.001829462,-0.00012833,0.398681182
name_15,B,15,0.001294849,4.96E-06,7.11E-07,-0.456278254,1.69591019,0.002379653,-0.00017376,0.657783175
name_15,A,1,-5.19E-05,1.03E-06,1.40E-07,-0.302881233,1.780756241,0.000571054,-0.000718432,-0.026383002
name_15,A,2,0.001379471,-1.26E-06,1.46E-06,0.358258804,1.854517208,0.003733741,-0.000223205,0.700771269
name_15,A,3,-0.000803449,2.14E-06,3.85E-07,1.630812856,5.77661031,0.001310524,-0.001659732,-0.408152122
name_15,A,4,-0.000715676,-4.10E-07,6.25E-08,0.912653107,3.863311974,9.71E-05,-0.001082114,-0.363563166
name_15,A,5,-0.000282227,3.76E-06,4.82E-07,0.876267359,3.901089534,0.001870888,-0.001304964,-0.143371294
name_15,A,6,-0.000619243,1.31E-06,2.14E-07,0.601341142,2.675160114,0.000552884,-0.001321024,-0.314575428
name_15,A,7,-0.000663363,2.59E-06,4.14E-07,1.190836382,3.986846792,0.001185717,-0.001378216,-0.336988482
name_15,A,8,0.000189792,3.35E-06,3.42E-07,0.392996444,2.826394698,0.00175382,-0.000775564,0.096414154
name_15,A,9,-0.000214545,1.98E-06,2.03E-07,0.666877914,3.327313687,0.001030392,-0.000987048,-0.108989113
name_15,A,10,-0.000222288,3.49E-06,4.51E-07,0.989146848,3.760879645,0.001646234,-0.001050167,-0.112922265
name_15,A,11,0.000139361,8.45E-06,2.02E-06,0.875079428,3.555749382,0.004314539,-0.001605051,0.070795534
name_15,A,12,-0.000842737,2.78E-06,5.01E-07,1.089543816,4.274677336,0.001471535,-0.001802389,-0.428110339
name_15,A,13,0.000837635,5.83E-06,8.67E-07,-0.232928356,1.787298398,0.00260376,-0.000811626,0.425518741
name_15,A,14,0.00119727,5.08E-06,7.82E-07,-0.142645406,2.410165331,0.003326034,-0.00043664,0.608213279
name_15,A,15,0.000926989,3.59E-06,5.05E-07,-0.719922354,2.142886071,0.001870483,-0.000500916,0.47091059
name_15,C,1,-0.000474055,5.99E-06,1.60E-06,1.411839254,4.002125517,0.00278802,-0.001831059,-0.240819864
name_15,C,2,0.001885924,9.61E-06,2.95E-06,1.137692865,3.252524996,0.00588205,-5.58E-06,0.958049477
name_15,C,3,-7.17E-05,5.05E-06,1.38E-06,1.436289313,3.766158979,0.002904764,-0.001202178,-0.036411856
name_15,C,4,0.000250024,3.58E-06,7.54E-07,1.539134964,4.022238975,0.002444686,-0.000652222,0.127012116
name_15,C,5,0.001249939,7.84E-06,1.87E-06,1.303140404,3.353607062,0.004403449,-7.46E-05,0.634969145
name_15,C,6,2.67E-05,2.35E-06,4.29E-07,1.264901636,3.585427756,0.001751608,-0.000736213,0.013548161
name_15,C,7,0.000840296,7.21E-06,2.07E-06,1.262767921,3.121843488,0.003991983,-0.000639248,0.426870238
name_15,C,8,0.00076843,4.54E-06,7.37E-07,1.355744324,3.318663256,0.002769476,-0.000191836,0.390362592
name_15,C,9,0.000483817,2.53E-06,3.34E-07,1.754111647,5.176077769,0.00221419,-0.000216343,0.245778801
name_15,C,10,0.000599746,6.55E-06,1.73E-06,1.485933237,3.737136189,0.00376375,-0.000537205,0.304671062
name_15,C,11,0.001451097,1.05E-05,3.40E-06,1.456724123,3.826074664,0.005953965,-0.000105836,0.737157525
name_15,C,12,0.000207403,5.34E-06,1.56E-06,1.903402538,5.421377525,0.00393614,-0.000837011,0.105360931
name_15,C,13,0.000831863,5.25E-06,1.04E-06,1.560062117,3.984207289,0.003367604,-0.000113081,0.422586418
name_15,C,14,0.000445959,4.45E-06,1.16E-06,1.907100366,5.289270278,0.003563027,-0.000419791,0.226547346
name_15,C,15,0.000497022,4.45E-06,6.79E-07,1.409401211,3.790578934,0.002517914,-0.000318345,0.252487264
name_16,B,1,0.002605927,-1.03E-05,8.56E-06,0.247133859,2.109717885,0.008620276,-0.00203843,1.32381081
name_16,B,2,0.000878247,-9.68E-07,8.31E-07,0.372741868,1.998909111,0.002747683,-0.000547531,0.44614963
name_16,B,3,0.000871446,-1.20E-06,1.73E-06,0.180512318,1.68739295,0.003102209,-0.001197862,0.442694741
name_16,B,4,3.49E-05,-3.79E-06,7.34E-07,0.487704491,2.549737347,0.002015847,-0.001293327,0.01774672
name_16,B,5,0.000155455,-1.73E-06,3.64E-07,0.527530588,2.632090624,0.001538891,-0.000866335,0.078971219
name_16,B,6,0.000328015,-3.82E-06,1.08E-06,0.465406909,2.50582517,0.002655652,-0.00136052,0.166631759
name_16,B,7,0.000227555,-2.75E-06,5.26E-07,0.630784637,2.910070821,0.002012884,-0.00093229,0.115597984
name_16,B,8,0.000132074,-4.96E-06,1.09E-06,0.385346048,2.516142989,0.002519407,-0.001533093,0.067093497
name_16,B,9,0.000322266,-4.92E-06,1.47E-06,0.409657157,2.75344066,0.003167557,-0.00171263,0.163711356
name_16,B,10,-0.00055082,-6.69E-06,1.28E-06,-0.005756743,1.842193467,0.001589372,-0.002386748,-0.279816371
name_16,B,11,-0.000637964,-6.17E-06,1.12E-06,0.080637118,2.044330735,0.001531404,-0.002363205,-0.324085708
name_16,B,12,0.000739231,-1.18E-06,7.51E-07,0.801069796,2.473267984,0.002728273,-0.000376349,0.375529447
name_16,B,13,-0.001102263,-8.46E-06,1.84E-06,-0.090675124,1.659917605,0.001242097,-0.003217336,-0.559949592
name_16,B,14,0.00114586,-1.06E-05,4.60E-06,-0.207901464,1.823031181,0.004675501,-0.002509516,0.582096919
name_16,B,15,0.001533771,-5.99E-06,5.12E-06,0.565063223,2.351246729,0.006374067,-0.002093914,0.779155824
name_16,C,1,-0.000955239,-8.46E-06,1.82E-06,-0.276556706,1.459040083,0.000728776,-0.002939443,-0.485261211
name_16,C,2,-0.000636209,-4.94E-06,6.94E-07,-0.338754365,1.949632358,0.000595634,-0.002269264,-0.323194179
name_16,C,3,-0.000372089,-5.91E-06,1.28E-06,-0.163279431,1.847969309,0.001513006,-0.0023994,-0.189021057
name_16,C,4,-0.000470182,-3.22E-06,3.11E-07,-0.095729131,1.561023271,0.000381323,-0.001396679,-0.238852349
name_16,C,5,-9.66E-05,-1.27E-06,1.17E-07,0.103494662,1.848493837,0.000553449,-0.000700128,-0.049078102
name_16,C,6,0.000175239,-7.96E-07,2.33E-07,0.449816471,2.670873665,0.001357304,-0.000652138,0.089021606
name_16,C,7,-0.000334336,-2.46E-06,1.83E-07,0.05613384,1.706682089,0.000402074,-0.001066454,-0.169842596
name_16,C,8,6.71E-06,-1.60E-06,1.78E-07,0.089902558,2.145015871,0.000873884,-0.000749941,0.00341082
name_16,C,9,9.46E-05,-1.97E-06,2.29E-07,0.251625444,2.255755137,0.001096252,-0.000744646,0.048071715
name_16,C,10,-0.00094606,-4.32E-06,5.60E-07,0.10262135,1.802230828,0.000395531,-0.002280557,-0.480598449
name_16,C,11,-0.000758864,-3.43E-06,3.69E-07,0.055929639,1.648684969,0.000235335,-0.001784356,-0.385503107
name_16,C,12,0.000491369,-1.24E-06,2.46E-07,0.425563827,2.484313384,0.001592971,-0.000342308,0.249615389
name_16,C,13,-0.001002998,-4.64E-06,6.50E-07,0.103265922,1.621452317,0.00023829,-0.002340216,-0.509522806
name_16,C,14,-0.001298348,-8.02E-06,1.68E-06,0.177520689,1.580724311,0.000728503,-0.003222142,-0.659560874
name_16,C,15,-0.001706997,-1.00E-05,3.53E-06,0.920772312,2.637144545,0.002748526,-0.004121855,-0.867154718
name_16,A,1,0.000133366,-2.42E-06,2.42E-07,0.47745247,2.212830636,0.001143535,-0.00069032,0.067749999
name_16,A,2,-0.000720132,-1.62E-06,2.00E-07,1.261442858,4.235879388,0.000529236,-0.001365957,-0.365827151
name_16,A,3,-0.000338338,-2.02E-06,3.18E-07,1.328826453,4.909988987,0.001420579,-0.001078762,-0.171875503
name_16,A,4,-0.000143857,-1.47E-06,7.91E-08,1.146346589,3.578952346,0.000603696,-0.000501553,-0.073079224
name_16,A,5,-0.000511375,-1.54E-06,9.59E-08,1.504519022,4.558308446,0.000405212,-0.000829713,-0.259778555
name_16,A,6,0.000399638,6.98E-08,9.31E-08,-0.768956166,3.018244747,0.000990278,-0.000495563,0.203016234
name_16,A,7,-0.000323549,-1.49E-06,9.54E-08,1.11073892,3.268874729,0.000464595,-0.000729326,-0.164362687
name_16,A,8,0.000588936,2.43E-07,7.39E-08,-0.918083141,3.629704041,0.001056817,-0.000485065,0.299179533
name_16,A,9,0.000102272,-7.12E-07,9.33E-08,0.607665944,3.406776391,0.000945751,-0.000535411,0.051954357
name_16,A,10,-0.000352485,-3.79E-06,4.05E-07,0.657578423,2.037723904,0.000916629,-0.001086737,-0.179062247
name_16,A,11,-7.76E-05,-3.23E-06,3.02E-07,0.739405244,2.190643382,0.001097661,-0.000616924,-0.039424498
name_16,A,12,-0.000209069,-1.29E-06,8.15E-08,1.264564051,3.756794478,0.000588287,-0.000558105,-0.106207091
name_16,A,13,0.000293625,-3.21E-06,3.48E-07,0.644912621,2.001904539,0.001497926,-0.000370588,0.149161326
name_16,A,14,-0.000234971,-3.84E-06,4.03E-07,0.459855104,1.551670784,0.000943373,-0.000928886,-0.119365326
name_16,A,15,0.000390403,3.37E-06,5.74E-07,-0.369812553,1.945544499,0.00143215,-0.001005316,0.198324667
name_17,C,1,0.000875957,4.57E-06,6.37E-07,0.662394034,2.528565669,0.002466878,-0.000224914,0.444986043
name_17,C,2,0.002280695,9.68E-06,2.98E-06,0.73789586,2.50133887,0.005847444,-9.66E-05,1.158592944
name_17,C,3,0.000641658,3.12E-06,3.62E-07,0.76068264,2.602394327,0.002009401,-0.000139392,0.325962033
name_17,C,4,0.000692245,2.12E-06,2.39E-07,0.392520904,2.318763132,0.00171529,-5.12E-05,0.35166024
name_17,C,5,0.000805286,3.21E-06,3.26E-07,0.520579911,2.101060195,0.001943456,-1.19E-06,0.409085461
name_17,C,6,0.000664208,1.63E-06,1.59E-07,0.158800024,2.435375739,0.001522108,-6.35E-05,0.33741765
name_17,C,7,0.001306127,4.90E-06,6.50E-07,0.367755198,2.132092244,0.002760689,-6.39E-06,0.66351262
name_17,C,8,0.001962781,6.73E-06,1.12E-06,-0.150322866,2.358210807,0.003889347,-4.01E-05,0.997092668
name_17,C,9,0.001357113,3.50E-06,4.28E-07,0.148836853,3.031131843,0.002778981,-7.56E-05,0.689413157
name_17,C,10,0.001688747,4.98E-06,7.15E-07,0.057726085,2.450805066,0.003285461,-6.67E-05,0.857883279
name_17,C,11,0.001284621,3.90E-06,4.49E-07,0.156947215,2.657691091,0.002751623,-2.60E-05,0.65258727
name_17,C,12,0.00101497,2.87E-06,3.06E-07,0.346101024,2.487641526,0.002204623,-9.24E-05,0.515604671
name_17,C,13,0.001134641,3.55E-06,4.62E-07,0.50455131,2.405671412,0.002553446,-4.20E-05,0.576397811
name_17,C,14,0.000889305,7.44E-06,1.53E-06,0.963682042,2.504736378,0.00347042,-0.000666707,0.451766836
name_17,C,15,0.001916216,7.18E-06,1.18E-06,0.197208146,2.387353528,0.004075364,-0.000103665,0.973437492
name_17,A,1,0.000574543,1.68E-06,3.75E-07,1.222287595,3.729871723,0.002097117,-0.000175354,0.291867692
name_17,A,2,0.000761558,4.06E-06,1.06E-06,1.178087807,3.027982459,0.003018674,-0.000337559,0.386871408
name_17,A,3,2.31E-05,8.74E-07,1.09E-07,0.271274837,2.172029098,0.00075999,-0.000500783,0.011709739
name_17,A,4,7.50E-05,1.52E-06,1.62E-07,0.832894842,2.612753687,0.001038052,-0.000503162,0.038122447
name_17,A,5,6.78E-05,1.50E-06,1.29E-07,1.054319759,2.844779493,0.000824504,-0.000413379,0.034433724
name_17,A,6,6.54E-05,2.74E-07,7.55E-08,0.21247988,2.13989058,0.000640526,-0.000377587,0.033221212
name_17,A,7,0.000274261,2.58E-06,2.48E-07,1.204950017,2.971107234,0.001437765,-0.000277264,0.139324549
name_17,A,8,0.000876385,4.33E-06,5.23E-07,0.872445168,2.409392665,0.00251367,-1.13E-05,0.445203494
name_17,A,9,0.000667189,2.02E-06,1.83E-07,0.740048513,2.597823844,0.001626205,-4.77E-05,0.338932232
name_17,A,10,0.000677796,2.89E-06,2.57E-07,0.886430308,2.523516959,0.00186423,-1.63E-05,0.344320595
name_17,A,11,0.000845176,2.57E-06,2.40E-07,0.693891419,2.523895491,0.001908397,-4.85E-05,0.429349268
name_17,A,12,0.000330614,1.78E-06,1.42E-07,1.176891282,2.965675086,0.001184607,-3.86E-05,0.167951749
name_17,A,13,0.000746398,3.51E-06,3.67E-07,0.886130833,2.465467907,0.0020431,-2.66E-05,0.379170076
name_17,A,14,0.000791658,5.32E-06,8.44E-07,0.983913663,2.38946048,0.002583082,-0.000157403,0.402162456
name_17,A,15,0.001490396,6.70E-06,1.08E-06,0.674933722,2.343840249,0.003577284,-1.15E-05,0.757121142
name_17,B,1,0.000605541,1.84E-06,5.76E-07,0.321442763,1.994777645,0.002057942,-0.000700778,0.307614973
name_17,B,2,0.00062381,4.27E-06,3.68E-06,0.017225918,2.111675655,0.004088353,-0.002615212,0.316895329
name_17,B,3,-0.000416842,-6.36E-07,4.79E-07,-0.321858395,1.564701891,0.0004532,-0.001526144,-0.21175595
name_17,B,4,0.000540838,1.19E-06,3.40E-07,0.05637002,1.81753897,0.00164446,-0.000360397,0.274745887
name_17,B,5,-0.000111755,1.46E-06,4.08E-07,-0.088644693,2.228743447,0.001081848,-0.001192174,-0.05677147
name_17,B,6,-0.000440913,-1.16E-06,3.00E-07,-0.15021782,1.684691435,0.000448225,-0.001330559,-0.22398374
name_17,B,7,0.000684563,2.83E-06,5.28E-07,0.437591702,2.108846868,0.002160556,-0.000326797,0.347758124
name_17,B,8,0.000869542,4.89E-06,8.47E-07,0.712654602,2.207382595,0.002824176,-0.000159525,0.44172726
name_17,B,9,0.000534415,3.14E-07,2.41E-07,0.219807858,1.760781179,0.00142846,-0.000185855,0.271482685
name_17,B,10,0.000994084,2.68E-06,4.69E-07,0.345076506,1.829431152,0.002285893,-0.000162057,0.504994586
name_17,B,11,0.0006711,2.11E-06,3.93E-07,0.120694625,1.785455784,0.001808931,-0.000250586,0.340918976
name_17,B,12,0.000543282,-5.14E-07,4.07E-07,-0.196060284,1.766628358,0.001488427,-0.00061247,0.275987102
name_17,B,13,0.000725426,1.59E-06,6.34E-07,-0.116116545,1.765098527,0.00206042,-0.000574952,0.368516208
name_17,B,14,0.000205639,2.86E-06,9.11E-07,-0.126011505,1.903774291,0.001658539,-0.001341008,0.104464789
name_17,B,15,0.001134357,5.37E-06,9.65E-07,0.770029068,2.27184061,0.003229012,-8.92E-05,0.576253297
name_19,A,1,0.000971666,4.72E-06,6.18E-07,-0.018707469,1.882533116,0.002333679,-0.000423662,0.493606568
name_19,A,2,-0.000663868,2.17E-07,8.14E-07,0.779611113,2.831744439,0.001558666,-0.002096954,-0.337244776
name_19,A,3,-0.001144872,-2.80E-07,1.88E-06,1.127568807,3.974740412,0.002819191,-0.003210755,-0.581595046
name_19,A,4,-0.000765015,-1.63E-06,1.58E-07,1.076435527,3.376174221,0.000247959,-0.001251776,-0.388627666
name_19,A,5,-0.001018883,-1.55E-06,2.34E-07,0.744389911,3.067363612,8.07E-05,-0.00184492,-0.517592366
name_19,A,6,-9.28E-05,-2.27E-07,1.60E-07,-0.245988999,2.400566791,0.000673808,-0.000944564,-0.04715114
name_19,A,7,-0.000357337,-9.20E-08,9.45E-08,-0.102351762,2.27799545,0.000221713,-0.000996774,-0.181527449
name_19,A,8,0.000459154,1.47E-06,1.63E-07,-0.385263005,2.787309036,0.001192668,-0.000518551,0.233250143
name_19,A,9,-0.000117751,3.76E-07,1.44E-07,-0.686217272,2.831925474,0.000511673,-0.001059191,-0.059817443
name_19,A,10,8.44E-05,4.35E-07,8.44E-08,-0.806620834,3.043331909,0.000484062,-0.000676983,0.042890269
name_19,A,11,-0.000420871,-4.43E-07,1.01E-07,-0.133050848,2.643746785,0.000241501,-0.001099414,-0.213802542
name_19,A,12,-0.000379633,5.43E-07,1.58E-07,0.091673096,2.262680623,0.000415192,-0.001172882,-0.192853566
name_19,A,13,-0.00033754,-5.13E-07,1.13E-07,-0.196361834,2.402060113,0.00035366,-0.001059641,-0.171470444
name_19,A,14,-0.000603819,8.67E-07,2.56E-07,0.380689826,2.086025931,0.000379902,-0.001472191,-0.306739899
name_19,A,15,-0.000512393,-6.22E-07,1.11E-07,0.416203302,2.238195599,0.000202508,-0.001041688,-0.260295726
name_19,B,1,0.003974929,7.18E-06,2.53E-06,-1.281017236,3.580750565,0.006012547,-2.68E-05,2.019264044
name_19,B,2,0.007263583,1.39E-05,9.96E-06,-1.140867245,3.092369473,0.010948291,-4.67E-05,3.689900112
name_19,B,3,0.007309903,1.33E-05,9.25E-06,-1.649562502,4.330243262,0.010226618,-0.000507882,3.713430836
name_19,B,4,0.002551896,5.35E-06,1.71E-06,-0.811986058,2.34910691,0.004415532,-4.74E-05,1.296363345
name_19,B,5,0.001994859,4.21E-06,1.05E-06,-0.744344309,2.253130332,0.003497902,-2.83E-05,1.013388428
name_19,B,6,0.001793137,4.33E-06,6.83E-07,-0.798355068,2.545417132,0.002858707,-7.73E-05,0.910913829
name_19,B,7,0.001806321,3.56E-06,6.97E-07,-0.87524593,2.52073261,0.003034924,-1.16E-05,0.91761124
name_19,B,8,0.0011537,2.47E-06,2.41E-07,-0.926975815,3.158024125,0.001826649,-5.79E-05,0.586079647
name_19,B,9,0.001877207,6.05E-06,9.93E-07,-0.713722112,2.202918402,0.003386668,-7.25E-05,0.953621045
name_19,B,10,0.00161332,3.90E-06,5.47E-07,-1.080521578,2.636044359,0.002432506,-8.01E-05,0.819566339
name_19,B,11,0.001981641,6.76E-06,1.25E-06,-0.806071856,2.101551514,0.003461681,-8.54E-05,1.006673448
name_19,B,12,0.00075885,5.28E-06,7.89E-07,-0.53209393,1.941809673,0.002071354,-0.00082612,0.385495789
name_19,B,13,0.002392227,6.35E-06,1.40E-06,-1.040983477,2.41885553,0.003607318,-0.000100611,1.215251171
name_19,B,14,0.002580853,5.37E-06,1.42E-06,-0.996853244,2.699708206,0.004218537,-8.80E-05,1.311073467
name_19,B,15,0.002840634,7.07E-06,2.09E-06,-0.970922543,2.333410752,0.004529528,-0.000119188,1.443041923
name_19,C,1,-6.29E-05,7.14E-06,1.82E-06,0.800872389,2.412547746,0.002742968,-0.001719005,-0.031931479
name_19,C,2,0.001263691,9.95E-06,2.67E-06,0.648852797,2.308994808,0.004823215,-0.000781423,0.641955036
name_19,C,3,-1.80E-05,6.54E-06,1.45E-06,0.770736875,2.457627487,0.002628319,-0.001580183,-0.009143806
name_19,C,4,0.000711038,4.03E-06,4.80E-07,0.052735439,2.476369639,0.002051839,-0.000591003,0.361207354
name_19,C,5,0.000602643,4.80E-06,5.88E-07,0.343777144,2.024460702,0.002132912,-0.000502631,0.306142443
name_19,C,6,0.000342581,6.06E-06,1.06E-06,0.786081273,2.362390911,0.002607021,-0.000898817,0.174031067
name_19,C,7,0.000649791,2.86E-06,2.52E-07,-0.073243507,2.540944373,0.001684618,-0.000291186,0.330093818
name_19,C,8,0.000318916,3.59E-06,3.66E-07,0.511265021,2.206280624,0.001650281,-0.000453526,0.162009223
name_19,C,9,0.000607438,5.40E-06,7.70E-07,0.393731989,1.960824235,0.002412079,-0.000442821,0.308578365
name_19,C,10,0.000635334,3.22E-06,2.88E-07,-0.344007509,2.269780624,0.001612698,-0.00038767,0.322749537
name_19,C,11,0.000887416,3.90E-06,4.11E-07,-0.349084162,2.228582484,0.002021183,-0.000361403,0.45080741
name_19,C,12,0.000763723,1.96E-06,1.93E-07,0.016418519,1.929693637,0.001483233,-2.26E-05,0.387971324
name_19,C,13,0.000930892,4.69E-06,6.41E-07,-0.422792293,2.7303047,0.002471367,-0.000688654,0.472893048
name_19,C,14,0.001085451,6.91E-06,1.17E-06,0.282534286,1.903630564,0.003125103,-0.000482772,0.551409334
name_19,C,15,0.000614062,5.53E-06,8.11E-07,0.217086526,2.560802443,0.002511926,-0.000995559,0.311943427
k1,A,1,0.000239105,-3.31E-06,6.96E-07,0.581225001,2.212942998,0.001984555,-0.000777938,0.121465182
k1,A,2,-0.00119081,-2.05E-06,1.53E-07,0.969329483,4.331192335,0.000344498,-0.001715963,-0.604931626
k1,A,3,-0.001339507,-2.84E-06,2.20E-07,0.940286597,4.122895929,0.000169879,-0.002084902,-0.680469648
k1,A,4,-0.000123242,-2.22E-06,2.07E-07,-0.64783297,2.091238265,0.000537956,-0.00098097,-0.06260702
k1,A,5,-9.73E-05,-2.17E-06,2.57E-07,-0.510075534,1.981077972,0.000728693,-0.001087158,-0.049449544
k1,A,6,-0.000562186,-9.44E-07,4.87E-08,0.768247635,3.208745678,1.41E-05,-0.000868249,-0.285590588
k1,A,7,-0.000582163,-5.80E-06,1.10E-06,-1.03193451,2.438371093,0.000710155,-0.002669093,-0.295738777
k1,A,8,-0.001082855,-2.99E-06,2.58E-07,0.832459348,2.744485995,6.12E-05,-0.001666834,-0.550090429
k1,A,9,-0.002068963,-5.27E-06,7.37E-07,0.956617925,2.696300546,0.000140068,-0.002934566,-1.051033409
k1,A,10,0.000158044,-2.01E-06,2.93E-07,-0.798935117,2.213485369,0.000809077,-0.00094097,0.080286154
k1,A,11,0.000206649,-2.52E-07,6.43E-08,-0.206432435,2.216689585,0.000676935,-0.000336356,0.104977601
k1,A,12,-0.001068623,-3.18E-06,2.83E-07,0.805202116,2.893928233,0.000148996,-0.001868113,-0.542860492
k1,A,13,0.000868276,-7.55E-07,3.01E-07,-0.368740547,1.580541832,0.001602712,-0.00036034,0.441084312
k1,A,14,-0.000780943,-2.67E-06,2.50E-07,0.268763877,2.961703282,0.000366237,-0.001768996,-0.396718895
k1,A,15,0.00048314,-1.91E-06,2.48E-07,-0.045421576,1.797782993,0.001290626,-0.000281251,0.245434891
k1,B,1,-0.002779096,-1.07E-05,2.73E-06,-0.011657888,1.332823511,0.000405254,-0.004863166,-1.411780934
k1,B,2,9.55E-05,-4.74E-08,3.55E-08,0.043777624,2.010876642,0.000392916,-0.000274453,0.048518184
k1,B,3,0.000111427,1.79E-06,3.09E-07,1.14220509,3.344640215,0.00173192,-0.000503687,0.05660477
k1,B,4,1.06E-05,2.98E-07,2.81E-08,0.65883846,2.782889206,0.000536604,-0.000242619,0.005400474
k1,B,5,0.000156366,1.87E-06,2.03E-07,0.779945285,2.549533394,0.00142537,-0.000429119,0.079433968
k1,B,6,0.000300315,2.31E-06,3.02E-07,1.500358399,4.227060748,0.002096209,-0.000196363,0.152560254
k1,B,7,0.000680722,1.08E-06,1.19E-07,0.458115936,2.885089557,0.001573015,-0.000358217,0.345806611
k1,B,8,0.000247955,1.21E-06,1.60E-07,1.181180932,3.588234624,0.001620758,-0.000224522,0.125961324
k1,B,9,-0.001027985,-1.48E-06,5.21E-07,0.455939713,1.861138942,0.000550342,-0.002013384,-0.522216588
k1,B,10,0.000701807,3.47E-07,8.42E-08,0.152399244,3.556992587,0.001515353,-0.000288194,0.35651798
k1,B,11,0.000523354,-3.46E-08,1.18E-07,0.005843183,1.961645184,0.001230704,-0.000192829,0.265863631
k1,B,12,-0.000385407,-7.57E-07,2.37E-07,0.148404852,2.052749552,0.000847359,-0.001178954,-0.195786614
k1,B,13,0.00113686,-1.82E-06,2.76E-07,0.072683121,2.697899172,0.002177584,-0.000429069,0.577525009
k1,B,14,1.73E-05,4.90E-09,8.29E-08,0.592042373,2.640490165,0.000878287,-0.000390494,0.008791769
k1,B,15,-0.000271629,-2.02E-06,1.38E-07,-0.987759176,2.904794986,0.000144666,-0.001220062,-0.1379874
k1,C,1,-3.71E-05,-7.61E-08,2.34E-07,-0.138348453,2.527446947,0.001076839,-0.001088537,-0.018842834
k1,C,2,-0.00045885,-1.08E-06,7.45E-08,0.041887241,2.341949907,5.03E-05,-0.001007635,-0.233095568
k1,C,3,8.41E-05,-1.37E-06,1.36E-07,-0.107851556,2.803658637,0.000808555,-0.000784168,0.042706698
k1,C,4,-0.000711156,-2.19E-06,2.03E-07,0.602034634,2.694236924,0.000303835,-0.00148943,-0.361267079
k1,C,5,-0.000419185,-8.99E-07,2.19E-07,0.454694535,2.053283061,0.00055785,-0.001167867,-0.212946232
k1,C,6,0.001579502,2.53E-06,3.54E-07,-0.480935435,3.311836535,0.002558021,-0.000152001,0.802386867
k1,C,7,-0.000785822,-1.77E-06,3.99E-07,0.993067719,3.41319469,0.000898325,-0.001680862,-0.399197774
k1,C,8,0.002177545,3.74E-06,5.92E-07,-0.90051938,3.879168547,0.003292915,-0.000243806,1.106192609
k1,C,9,0.000170321,-1.21E-06,1.69E-07,0.562595795,2.220288287,0.001005231,-0.000437068,0.086522913
k1,C,10,-0.000680144,-4.52E-06,6.78E-07,0.207834957,2.476422684,0.001082036,-0.002141678,-0.345513338
k1,C,11,0.000914267,9.69E-08,1.94E-07,-0.224818857,2.07392786,0.001677409,-0.000226685,0.464447605
k1,C,12,0.000185268,-2.36E-06,2.14E-07,0.633480976,3.009779627,0.00123029,-0.000598089,0.094116393
k1,C,13,0.000800607,-2.87E-06,4.86E-07,-0.376340401,2.255834473,0.001880761,-0.000883944,0.40670848
k1,C,14,-6.27E-05,-1.99E-06,1.32E-07,-0.368822183,2.264309565,0.000501773,-0.000808723,-0.031849893
k1,C,15,0.001296472,-3.91E-07,3.41E-07,-0.785306711,2.285147025,0.002025073,-8.04E-05,0.658607641
name_20,A,1,0.001870679,4.21535E-06,5.1689E-07,-0.798258935,3.317081858,0.003266754,-0.000150088,0.950305117
name_20,A,2,0.003310697,8.87053E-06,2.25979E-06,-1.072305234,2.805412244,0.005048614,-0.000147641,1.681834068
name_20,A,3,0.00143624,5.21067E-06,6.53834E-07,0.195321947,2.183679042,0.003059603,-4.94263E-06,0.729610018
name_20,A,4,0.002607311,9.12073E-06,1.95144E-06,-0.286826832,2.050951756,0.005113342,-0.000161684,1.324514024
name_20,A,5,0.003222042,8.28059E-06,1.78033E-06,-0.946549752,3.074885865,0.005344541,-9.28288E-05,1.636797557
name_20,A,6,0.001494315,5.39815E-06,7.27319E-07,-0.120239933,1.937231866,0.002996629,-6.28788E-05,0.75911191
name_20,A,7,0.002794765,7.89637E-06,1.54929E-06,-0.564847261,2.598000399,0.005029014,-0.000160751,1.419740841
name_20,A,8,0.003357006,1.14484E-05,3.4226E-06,-0.320823145,1.85970342,0.005768584,-3.16994E-05,1.705359088
name_20,A,9,6.68175E-05,1.34297E-06,7.49567E-08,0.047966605,1.593018421,0.000515334,-0.000337318,0.033943275
name_20,A,10,0.003425199,1.1828E-05,3.34394E-06,-0.126541812,1.727703312,0.006199281,-0.000126814,1.740001126
name_20,A,11,0.002102204,7.28648E-06,1.31068E-06,-0.197790977,1.631395283,0.003533874,-5.39121E-05,1.067919682
name_20,A,12,0.000848592,5.19181E-06,6.94661E-07,0.195617733,1.291746796,0.002080851,-0.000209399,0.431084801
name_20,A,13,0.001677792,7.87145E-06,1.45589E-06,0.038584209,1.479445977,0.003656367,-0.000179918,0.85231815
name_20,A,14,0.002756451,1.00381E-05,2.23964E-06,-0.16142818,1.829833766,0.005218377,-9.88584E-05,1.40027691
name_20,A,15,0.001845574,8.09315E-06,1.48085E-06,0.054565256,1.629455259,0.003998698,-0.000108124,0.937551688
name_20,C,1,0.001129479,-1.8088E-06,4.67398E-07,0.106968903,1.736886666,0.002328175,-0.000141017,0.573775455
name_20,C,2,0.001713794,5.40232E-06,1.10789E-06,-0.782791296,2.411965464,0.003192227,-0.000510083,0.870607122
name_20,C,3,0.000995851,4.48123E-06,5.58359E-07,-0.155811749,1.313623986,0.002034535,-8.14501E-05,0.505892279
name_20,C,4,0.001901304,6.90843E-06,1.46327E-06,-0.972750994,2.306930635,0.002998889,-0.000480682,0.965862219
name_20,C,5,0.001940123,6.79765E-06,1.54059E-06,-0.734116276,2.278613763,0.003523212,-0.000706874,0.985582596
name_20,C,6,0.001441313,6.22229E-06,1.00816E-06,-0.323466784,1.441458761,0.002654949,-0.000134588,0.732187172
name_20,C,7,0.002594819,8.7034E-06,2.17482E-06,-0.840531527,2.165666634,0.004166962,-0.000436542,1.318168072
name_20,C,8,0.002049954,1.17502E-05,3.42713E-06,-0.558000692,1.789207803,0.003895494,-0.001500457,1.041376437
name_20,C,9,0.000241334,1.44907E-06,7.05223E-08,-0.154154424,1.850065284,0.000641494,-0.000283793,0.122597685
name_20,C,10,0.002641314,1.12031E-05,3.21262E-06,-0.637603968,1.874477852,0.00457402,-0.000781183,1.341787443
name_20,C,11,0.001046033,4.44804E-06,6.55795E-07,-0.595633742,2.040909588,0.002165723,-0.000531603,0.531384976
name_20,C,12,0.000779608,2.80697E-06,2.82892E-07,-0.081114677,1.731435633,0.001672781,-6.13876E-05,0.396041072
name_20,C,13,0.00113726,4.00895E-06,6.45612E-07,-0.673971749,2.034971838,0.002182554,-0.000395186,0.577728263
name_20,C,14,0.001704308,4.85384E-06,1.01639E-06,-0.401893652,2.069946564,0.003255201,-0.000209963,0.86578847
name_20,C,15,0.000534599,1.22739E-06,2.15795E-07,0.454488375,2.379855548,0.001505226,-0.000172897,0.271576135
name_20,B,1,0.000650873,-1.72005E-06,1.59453E-07,-0.543809689,2.323090494,0.001253717,-0.000453636,0.330643259
name_20,B,2,0.002660935,7.47522E-06,1.81555E-06,-1.100572079,2.756140868,0.004103303,-0.000324479,1.351754828
name_20,B,3,0.000979884,4.08918E-06,3.98636E-07,-0.326087918,1.602146534,0.001779064,-0.000136113,0.497781174
name_20,B,4,0.003268815,8.47711E-06,2.23698E-06,-1.283698,3.177863992,0.004587096,-0.000173286,1.660558257
name_20,B,5,0.002987442,7.81919E-06,2.01068E-06,-1.236229296,3.043030802,0.0041837,-0.000191021,1.517620449
name_20,B,6,0.0014589,4.15566E-06,4.89786E-07,-1.083944611,2.85228354,0.002233308,-4.21317E-05,0.741121236
name_20,B,7,0.003571171,7.68982E-06,1.96876E-06,-1.539869549,3.927491313,0.004748085,-0.000124886,1.814154685
name_20,B,8,0.001623026,8.40487E-06,1.66064E-06,-0.499552152,2.029755317,0.003146633,-0.000876539,0.824497036
name_20,B,9,-0.000129476,5.10046E-07,2.111E-08,-0.616989839,2.704849166,9.2744E-05,-0.000506946,-0.065773921
name_20,B,10,0.002830936,9.36806E-06,2.1318E-06,-0.712168564,2.353227802,0.004804801,-0.000158276,1.438115647
name_20,B,11,0.000858161,3.05983E-06,4.66607E-07,-1.127763112,3.101532551,0.001578086,-0.000849911,0.435945927
name_20,B,12,0.000347968,2.1806E-06,1.35746E-07,-0.674621829,2.557314315,0.00087957,-0.000533544,0.17676752
name_20,B,13,0.001604959,5.06267E-06,9.65654E-07,-1.179448255,2.916580791,0.002637737,-0.000713853,0.815319304
name_20,B,14,0.002484291,6.31958E-06,1.56009E-06,-1.243934319,2.96518876,0.00350452,-0.000277095,1.262019575
name_20,B,15,0.001446232,3.24551E-06,6.12008E-07,-1.239207389,3.330247801,0.002387362,-0.000446954,0.734686049
name_21,B,1,0.000147577,-9.13274E-06,3.88819E-06,-1.087256349,2.963397218,0.002529744,-0.004271109,0.074968955
name_21,B,2,0.000957881,-2.01361E-06,4.96175E-07,-0.836522556,2.662512659,0.001936834,-0.000589655,0.486603705
name_21,B,3,-0.000160074,-6.6579E-07,8.58803E-08,-0.195756794,2.724391604,0.000447297,-0.000726541,-0.081317377
name_21,B,4,-0.000869483,-2.33293E-06,2.20493E-07,0.741073103,2.174858117,0.000166385,-0.001411751,-0.441697377
name_21,B,5,-0.000247231,4.61353E-08,1.92883E-07,-0.447421971,3.019277738,0.000613576,-0.001259946,-0.125593535
name_21,B,6,-0.000273993,-1.37876E-06,3.86515E-07,-0.260788947,1.623279568,0.000595387,-0.001244515,-0.139188504
name_21,B,7,-0.00109092,1.45107E-07,1.7516E-07,0.414503247,3.41192748,2.121E-05,-0.001844322,-0.554187279
name_21,B,8,-0.000413068,-8.58033E-07,1.93726E-07,-1.372098401,3.92964863,6.07319E-05,-0.001589464,-0.209838644
name_21,B,9,-0.001097114,-2.96568E-06,3.76625E-07,-0.380323705,2.093838923,3.15268E-05,-0.002223889,-0.557333675
name_21,B,10,0.000317793,1.54995E-06,1.21849E-07,-0.132385706,2.208311659,0.000985153,-0.000401661,0.161438981
name_21,B,11,0.001096401,3.0293E-07,1.48647E-07,-0.613051665,3.81683188,0.001813554,-0.000276707,0.556971839
name_21,B,12,-0.000706976,-2.95641E-06,3.80331E-07,0.192218298,1.805155555,0.000411784,-0.001688139,-0.359143915
name_21,B,13,-0.000408434,-1.61625E-06,8.19866E-08,-0.091215478,1.76659027,0.000115302,-0.000910403,-0.207484637
name_21,B,14,3.89162E-05,-1.66161E-06,2.60396E-07,0.790141983,3.191270751,0.001318965,-0.000835663,0.019769435
name_21,B,15,-0.001198128,-6.43152E-06,9.77643E-07,0.195359549,1.433488822,0.00027835,-0.002465803,-0.60864885
name_21,A,1,-0.001120828,-3.4317E-06,1.23078E-06,-0.21972059,3.120602018,0.001435321,-0.003736879,-0.569380767
name_21,A,2,0.000869669,3.71305E-06,8.71633E-07,0.617804624,2.422997468,0.002903525,-0.000408283,0.441792095
name_21,A,3,0.000830066,1.79396E-06,3.70802E-07,0.072179672,1.580833506,0.001754488,-5.82186E-05,0.421673561
name_21,A,4,0.000206874,2.46179E-06,7.27394E-07,0.48807321,2.291385372,0.002083131,-0.001118742,0.105092129
name_21,A,5,2.5383E-05,1.56313E-07,7.24935E-07,0.177192746,2.247746762,0.001750642,-0.001439457,0.012894572
name_21,A,6,0.001200552,3.53637E-06,1.00456E-06,0.275271937,1.653121283,0.002922293,-0.000142062,0.609880573
name_21,A,7,-0.000862909,8.7519E-07,2.81523E-07,0.092240301,1.972579995,2.79617E-05,-0.001849807,-0.43835773
name_21,A,8,-0.000762447,-1.67197E-06,3.78566E-07,-0.36863157,1.880895032,0.000102718,-0.001884699,-0.387322906
name_21,A,9,0.000282735,1.73633E-06,7.71214E-07,0.079981883,2.119568942,0.001874223,-0.001340347,0.143629418
name_21,A,10,4.67772E-05,6.81571E-07,2.16444E-07,0.284618145,2.295813233,0.000984108,-0.000789642,0.023762822
name_21,A,11,0.001305338,2.39588E-06,1.16361E-06,0.522198453,2.000339964,0.003601497,-0.000166842,0.663111808
name_21,A,12,0.000249339,1.10733E-06,7.04638E-07,0.598357061,2.79271675,0.002190792,-0.001084454,0.126664432
name_21,A,13,-0.000363536,-2.80568E-07,2.80814E-07,0.019932431,2.174454977,0.00065388,-0.001463318,-0.184676163
name_21,A,14,0.00200482,3.97524E-06,1.52166E-06,0.575660273,2.266755548,0.00473639,-0.000273617,1.018448698
name_21,A,15,0.000366857,2.07626E-06,7.44617E-07,-0.077473161,2.934776616,0.002070063,-0.00152754,0.186363217
name_21,C,1,-0.007596673,-1.44816E-05,6.26325E-06,1.518900944,4.767218419,0.000190382,-0.010406766,-3.859110064
name_21,C,2,-0.003044051,-6.52998E-06,1.30282E-06,1.329969203,3.685031534,7.08123E-05,-0.004255019,-1.546377713
name_21,C,3,0.000905247,1.76931E-06,1.15141E-07,-1.241744943,3.547337654,0.001278051,-7.2039E-05,0.459865726
name_21,C,4,-0.001132825,-1.57828E-06,3.17409E-07,0.580350399,2.484475313,0.000101408,-0.001919807,-0.575475323
name_21,C,5,0.000171067,2.52346E-06,2.49072E-07,0.07262949,1.682595358,0.000984715,-0.000709584,0.086901889
name_21,C,6,0.000689572,1.76284E-06,8.00049E-08,-0.499488122,3.141009587,0.001184784,-9.95751E-06,0.350302749
name_21,C,7,-0.001863506,-6.80786E-07,7.02282E-07,0.531650115,2.789377639,4.79768E-05,-0.003112337,-0.946661128
name_21,C,8,-0.000464221,-3.61031E-07,2.67549E-07,-0.180338252,2.497680944,0.000574949,-0.001393565,-0.235824397
name_21,C,9,-0.000203943,2.51427E-06,3.11913E-07,-0.207782469,2.062612698,0.000708177,-0.001332322,-0.103603103
name_21,C,10,-0.00085416,4.0307E-07,1.99229E-07,0.152548294,2.264205618,8.07173E-05,-0.001595848,-0.433913045
name_21,C,11,0.000730584,1.77772E-07,2.23614E-07,0.289300447,2.243866225,0.001727814,-0.000168023,0.371136878
name_21,C,12,-0.000576361,-1.31014E-06,1.09706E-07,0.290539508,2.53729618,7.11201E-05,-0.001173462,-0.292791557
name_21,C,13,-0.001087644,-1.62465E-06,2.77221E-07,0.842050966,3.715455468,0.000278139,-0.002003411,-0.552523327
name_21,C,14,0.001154489,-1.16671E-06,4.245E-07,0.146857124,2.502296232,0.002513042,-0.000156959,0.586480596
name_21,C,15,-0.001987928,-4.30879E-06,1.02121E-06,0.771073069,2.673296902,0.000213365,-0.003525048,-1.009867668
name_22,B,1,-0.003903626,-1.69876E-05,6.50307E-06,0.267956124,1.71623527,0.00048517,-0.007739262,-1.983041754
name_22,B,2,-0.006404234,-2.73299E-05,1.66386E-05,0.240118255,1.574989697,0.00060261,-0.01243018,-3.253351064
name_22,B,3,-0.003130318,-1.20899E-05,3.2891E-06,0.396807707,1.849479202,0.000275341,-0.005774813,-1.59020157
name_22,B,4,-0.002815611,-1.19663E-05,3.22248E-06,0.380913968,1.735995892,0.000198371,-0.005427869,-1.430330579
name_22,B,5,-0.002423965,-9.68107E-06,2.10778E-06,0.348615337,1.766963642,0.000304379,-0.004590194,-1.231374294
name_22,B,6,-0.000854022,-4.71108E-06,5.10993E-07,0.33218774,1.91465125,0.000443157,-0.001962251,-0.433843285
name_22,B,7,-0.003147244,-1.38654E-05,4.56644E-06,0.551200656,1.845457032,0.000679994,-0.005915608,-1.598800063
name_22,B,8,-0.001019407,-4.88851E-06,5.58013E-07,0.430816346,2.041692032,0.000377429,-0.002151205,-0.517858866
name_22,B,9,-0.000759248,-4.3309E-06,4.25667E-07,0.27375914,1.924193429,0.000462792,-0.001812142,-0.385698035
name_22,B,10,-0.001446657,-8.58381E-06,1.8343E-06,0.59407635,2.085973487,0.001258747,-0.003229763,-0.734901555
name_22,B,11,-0.001254138,-6.53123E-06,9.75271E-07,0.272312063,1.718995405,0.000433749,-0.002627262,-0.637101883
name_22,B,12,-0.001635198,-6.91306E-06,1.05033E-06,0.186327108,1.907342891,0.000144468,-0.003318959,-0.830680564
name_22,B,13,-0.001766767,-7.87402E-06,1.43193E-06,0.368324797,1.696193654,0.000246639,-0.003416197,-0.897517485
name_22,B,14,-0.002398661,-1.30245E-05,3.82505E-06,0.047151747,1.600547209,0.000561733,-0.005554148,-1.218519991
name_22,B,15,-0.002153174,-1.01487E-05,2.4131E-06,-0.170174762,1.815737392,0.00034291,-0.004699419,-1.093812293
name_22,C,1,0.000974555,-3.99673E-06,1.10218E-06,0.873983836,3.27964375,0.003673653,-0.000524178,0.495074121
name_22,C,2,-0.001344904,-1.1587E-05,3.88831E-06,0.679503617,2.068883789,0.002647661,-0.003602167,-0.683210991
name_22,C,3,-0.000557744,-3.95273E-06,5.72103E-07,0.51830508,1.868079635,0.000893245,-0.001465866,-0.28333385
name_22,C,4,-0.000284059,-3.19679E-06,2.89869E-07,0.090806417,1.880651841,0.000709202,-0.001124372,-0.144301726
name_22,C,5,4.00924E-05,-2.29599E-06,2.19455E-07,0.321996891,2.182387626,0.001005047,-0.000662135,0.020366926
name_22,C,6,-0.000665615,-1.79448E-06,1.29596E-07,0.603606886,1.932673622,2.11971E-05,-0.00106723,-0.338132446
name_22,C,7,-0.000511987,-3.93966E-06,5.13686E-07,0.400618348,2.178176478,0.000984627,-0.001580016,-0.260089234
name_22,C,8,-0.000303648,-1.60175E-06,1.34035E-07,0.501095191,1.795395496,0.000422498,-0.000761679,-0.154252979
name_22,C,9,-0.000737431,-2.5071E-06,2.16238E-07,0.716678781,2.177057848,0.000193581,-0.001291535,-0.374614736
name_22,C,10,-0.001157355,-6.72848E-06,1.16615E-06,0.510571234,1.970119602,0.000961519,-0.002579081,-0.587936292
name_22,C,11,-0.000694322,-4.09417E-06,4.53842E-07,0.370192463,1.79342628,0.000546727,-0.001569476,-0.352715531
name_22,C,12,-0.000345267,-2.58388E-06,2.44541E-07,0.520977291,1.771084004,0.000553853,-0.000924931,-0.175395823
name_22,C,13,-0.000603975,-4.69241E-06,5.65093E-07,0.494754132,1.926593254,0.000880737,-0.001519453,-0.306819185
name_22,C,14,-0.000533576,-4.75162E-06,6.7386E-07,0.693372608,2.093030594,0.001159567,-0.001503814,-0.271056521
name_22,C,15,0.000236471,-4.48861E-06,6.39796E-07,0.130004162,2.066487973,0.001867453,-0.001021949,0.120127074
name_22,A,1,0.001037466,-4.31228E-06,9.71263E-07,0.251444382,1.823437915,0.002811955,-0.000449142,0.527032844
name_22,A,2,0.001246714,-5.56743E-06,1.63546E-06,0.223581434,1.503014889,0.003350862,-0.00055519,0.633330526
name_22,A,3,-0.000351737,-3.27862E-06,2.91201E-07,-0.173578943,1.859011631,0.000446715,-0.001408601,-0.178682306
name_22,A,4,0.000260799,-1.37446E-06,1.09617E-07,-0.128415291,1.888681164,0.00081142,-0.0004402,0.132486078
name_22,A,5,0.000466654,-1.49822E-06,1.60071E-07,-0.182118325,2.310947104,0.001187617,-0.000479844,0.237060026
name_22,A,6,-0.000454211,-2.56138E-06,1.64028E-07,0.089710804,1.576972753,0.000178845,-0.001065225,-0.23073898
name_22,A,7,0.001640872,-3.20284E-07,6.60318E-07,0.401313688,3.135403266,0.003448047,-0.000265153,0.833563042
name_22,A,8,0.000112578,-3.20211E-06,3.02021E-07,-0.032009995,1.627149329,0.000900986,-0.000873991,0.05718942
name_22,A,9,-0.000909522,-5.00641E-06,6.24541E-07,0.37242727,1.450626195,0.000296571,-0.001841479,-0.462037175
name_22,A,10,0.000396919,-5.18183E-06,8.79015E-07,-0.062624987,1.641075711,0.001752274,-0.001444806,0.201634929
name_22,A,11,-9.646E-06,-3.1635E-06,2.80575E-07,-0.272041905,1.856858067,0.000726716,-0.001193578,-0.004900168
name_22,A,12,-0.000921375,-4.2547E-06,4.15832E-07,0.391197543,1.801088497,0.000223723,-0.001833079,-0.468058267
name_22,A,13,-0.000318661,-4.86113E-06,6.03998E-07,-0.359043957,1.708955332,0.000600914,-0.001825271,-0.161880032
name_22,A,14,0.001426882,-4.62709E-08,3.32921E-07,-0.290062927,3.269388373,0.002563829,-0.000112187,0.724856225
name_22,A,15,0.000915467,4.84116E-07,2.21786E-07,0.038009747,2.321481972,0.001845418,-5.41776E-06,0.465057313
name_23,C,1,-0.003117927,-2.72449E-06,8.70452E-07,1.854424655,6.484062022,0.00010641,-0.004283023,-1.583907153
name_23,C,2,-0.000128744,-1.15757E-07,4.9686E-08,0.620664014,3.014412636,0.00042898,-0.000525993,-0.065401949
name_23,C,3,-0.000503047,5.35524E-07,6.8606E-08,0.6250774,2.082215871,1.68255E-05,-0.000892574,-0.255548056
name_23,C,4,-0.001387543,-2.68399E-06,2.26438E-07,0.976248507,4.092877731,7.98236E-05,-0.002160412,-0.704871603
name_23,C,5,-0.000903609,-2.02442E-06,1.33666E-07,0.75421465,2.746309597,3.02311E-05,-0.00138135,-0.459033382
name_23,C,6,-0.00036504,1.22491E-06,9.30323E-08,0.004512872,1.700320687,0.000110875,-0.000883613,-0.185440212
name_23,C,7,-0.000596105,-6.5596E-07,5.80757E-08,0.491217902,2.675606712,0.000118343,-0.000932298,-0.302821247
name_23,C,8,-0.000123758,2.38591E-07,3.37589E-08,0.330110962,3.264226044,0.000341052,-0.000482375,-0.062869108
name_23,C,9,-0.001410503,-3.68865E-07,2.02458E-07,1.074202773,4.78327611,0.000147808,-0.002056699,-0.716535749
name_23,C,10,8.27071E-05,1.865E-06,1.27038E-07,0.507262215,2.584669184,0.000811381,-0.00053723,0.042015218
name_23,C,11,-0.001497725,-2.93441E-06,2.75241E-07,1.406105221,4.12250119,0.00010301,-0.002104816,-0.760844461
name_23,C,12,-0.000672176,-9.97887E-07,6.86395E-08,1.247396501,3.735337666,5.22408E-06,-0.000966531,-0.34146544
name_23,C,13,-0.001334541,-3.19592E-06,2.75532E-07,0.724949976,3.283903576,8.19682E-06,-0.002215047,-0.677946904
name_23,C,14,0.000609968,2.28232E-06,1.52621E-07,-0.206896345,1.442905443,0.001146048,-1.92599E-05,0.309863862
name_23,C,15,-0.000373761,2.22345E-06,3.44232E-07,-0.378552171,2.137018924,0.000630252,-0.001575656,-0.18987067
name_23,A,1,0.000338246,-2.75844E-06,4.53582E-07,-0.704433852,2.457247331,0.001173677,-0.001008438,0.171828916
name_23,A,2,0.000915706,-2.04543E-07,2.61027E-07,-0.316838689,2.321898434,0.001927489,-0.00022028,0.465178657
name_23,A,3,0.000194709,1.34132E-07,9.28068E-08,-0.929529724,3.639467478,0.000627693,-0.000624105,0.09891238
name_23,A,4,0.00122612,1.37729E-06,1.21019E-07,-2.333910645,8.181234271,0.001634234,-2.22468E-05,0.622868821
name_23,A,5,0.000104549,-7.04971E-07,8.20688E-08,0.070482662,2.52196739,0.000716466,-0.000495938,0.053110757
name_23,A,6,0.000101572,-1.28948E-07,3.14423E-07,0.077080253,1.617186513,0.0011299,-0.000725366,0.051598783
name_23,A,7,0.000751592,1.58563E-07,1.96745E-07,-0.185788941,2.264686474,0.001603127,-0.000108812,0.381808846
name_23,A,8,0.000225189,-1.51229E-07,3.74552E-08,-0.483206323,3.138770339,0.000601831,-0.000267282,0.114395921
name_23,A,9,0.000398946,2.35932E-07,9.85952E-08,0.22779215,1.730166036,0.000988462,-4.05466E-05,0.202664784
name_23,A,10,0.000404779,-1.41721E-07,7.54353E-08,-0.113857452,2.210358124,0.000912004,-0.000179606,0.205627649
name_23,A,11,0.000578191,7.30908E-07,3.59262E-08,-1.504523158,4.588525483,0.000777196,-1.94118E-05,0.293721029
name_23,A,12,0.000168053,-6.24357E-07,6.81183E-08,-0.980082949,3.913015812,0.000622655,-0.000546168,0.085370785
name_23,A,13,0.000603319,1.35547E-07,5.16538E-08,-0.26995806,3.558767079,0.001104887,-0.000133918,0.306486135
name_23,A,14,-0.000633936,-2.02672E-06,1.32854E-07,0.3085235,1.760227378,0.000106706,-0.001228635,-0.322039392
name_23,A,15,0.000325167,-1.08468E-06,1.23459E-07,0.444080597,2.254247569,0.001080017,-0.000201585,0.165185072
name_23,B,1,0.000275779,-1.67205E-06,8.01572E-07,0.575815703,1.758387005,0.001780263,-0.000819775,0.140095629
name_23,B,2,0.000579535,-2.58455E-06,7.29336E-07,0.045137809,1.583895738,0.001900954,-0.000787074,0.294403678
name_23,B,3,0.000297798,-5.15722E-07,1.39694E-07,-0.318818286,2.420830842,0.000923351,-0.000489513,0.151281138
name_23,B,4,0.000500532,2.56921E-07,8.4712E-08,-0.229462058,1.856928802,0.00090328,-4.63551E-05,0.254270355
name_23,B,5,0.000414921,-9.16915E-07,2.15535E-07,-0.244702047,2.378998424,0.001190303,-0.000555935,0.210779693
name_23,B,6,0.000526201,3.1127E-06,2.40471E-07,0.048831822,1.936606609,0.001448999,-0.000325064,0.2673099
name_23,B,7,0.001010493,-3.44126E-07,3.90803E-07,0.238099033,2.056574043,0.002193423,-4.83944E-05,0.513330497
name_23,B,8,0.000451283,1.09165E-06,5.66337E-08,-0.24030165,2.243857942,0.000902497,-5.71276E-06,0.22925153
name_23,B,9,-0.000155859,1.26465E-06,1.08675E-07,0.595431848,2.443271374,0.000609324,-0.000705377,-0.079176333
name_23,B,10,0.000444043,-2.04139E-06,5.97825E-07,0.124137414,1.744999343,0.00185344,-0.000895259,0.225573889
name_23,B,11,-0.000319893,-1.8289E-06,1.0505E-07,-0.371674878,1.754211878,7.69322E-05,-0.000964709,-0.162505778
name_23,B,12,-0.000206217,-1.98782E-06,1.12309E-07,-0.08787761,1.519586177,0.000273913,-0.000706633,-0.10475812
name_23,B,13,-0.000360289,6.64157E-07,1.60062E-07,0.0149361,1.712922225,0.000293571,-0.001065517,-0.183026854
name_23,B,14,-7.97371E-05,-1.60132E-06,9.04896E-08,-0.023543184,1.591827817,0.00036482,-0.000497981,-0.040506467
name_23,B,15,-0.000100175,-1.27392E-06,1.38384E-07,-0.028386376,1.543845437,0.000423193,-0.000726822,-0.050889111
name_24,C,1,-0.000262799,-1.204E-05,3.975E-06,-0.356914125,1.573439663,0.002078623,-0.00359017,-0.133501697
name_24,C,2,-0.000582242,-6.32992E-06,1.15335E-06,-0.493118202,2.208105791,0.001190199,-0.00284893,-0.295779078
name_24,C,3,0.000228601,1.0254E-06,2.94528E-07,-0.451230419,2.414535439,0.001142402,-0.001067636,0.116129365
name_24,C,4,-0.000911234,-3.17096E-06,3.0758E-07,0.42949353,1.886547766,0.000153985,-0.00181275,-0.46290679
name_24,C,5,-0.000563873,-1.50295E-06,1.42479E-07,-0.039498719,2.027921742,0.000170097,-0.00129706,-0.286447725
name_24,C,6,0.000510741,5.25598E-07,2.47333E-07,-0.023194931,1.539540657,0.00127956,-0.000324976,0.25945633
name_24,C,7,-0.000151112,-4.94981E-09,9.45332E-08,-0.320846424,2.706129116,0.000472583,-0.000854689,-0.076765003
name_24,C,8,0.000163555,1.71263E-06,1.49724E-07,-0.025048846,2.021341867,0.000842645,-0.000603717,0.083085827
name_24,C,9,0.00025679,2.72393E-06,3.93872E-07,-0.153060455,1.998328206,0.001278364,-0.001029676,0.130449213
name_24,C,10,5.33059E-05,5.73948E-07,1.14429E-07,-0.618810118,3.239449362,0.000706599,-0.000829953,0.027079418
name_24,C,11,-0.0004821,-1.36713E-06,1.50654E-07,-0.01324533,2.086825079,0.000204886,-0.001273359,-0.244906826
name_24,C,12,-0.000123428,8.75636E-07,1.60172E-07,-0.960137397,3.459495008,0.000443895,-0.001201144,-0.06270118
name_24,C,13,-0.000897167,-1.39429E-06,1.79749E-07,0.107499503,2.652382846,0.000266636,-0.001792456,-0.455760889
name_24,C,14,-0.000211803,1.21703E-06,1.15861E-07,-0.193310336,2.938783678,0.00060068,-0.000994755,-0.107595725
name_24,C,15,-0.00107761,-9.38917E-06,2.06084E-06,-0.226771835,1.599451034,0.000894814,-0.003499089,-0.54742584
name_24,B,1,0.0001475,-8.29376E-06,2.32131E-06,-0.038912871,1.659544124,0.00249712,-0.002326169,0.074929952
name_24,B,2,0.001221414,-6.71093E-06,2.55791E-06,0.174352725,1.498385457,0.003593443,-0.001108553,0.620478266
name_24,B,3,0.00110513,-1.45285E-06,5.48583E-07,0.657674142,2.81684372,0.002740476,-0.000269406,0.561406128
name_24,B,4,5.44627E-05,-2.74409E-06,2.52128E-07,-0.304372351,1.479174513,0.000650744,-0.000734125,0.027667028
name_24,B,5,0.000603437,-5.0627E-07,1.52574E-07,0.483562096,2.255103733,0.001345077,-0.000220731,0.306545815
name_24,B,6,0.001645254,1.74435E-06,3.80483E-07,-0.692704305,3.202267455,0.002578286,-0.000272851,0.835789277
name_24,B,7,0.000184152,-2.21318E-06,1.74923E-07,-0.225246871,1.626942848,0.000788601,-0.000541578,0.093549046
name_24,B,8,0.001516299,2.2122E-06,2.48011E-07,-1.441912806,5.017273198,0.002251095,-0.000119881,0.770279871
name_24,B,9,0.001603445,3.60402E-06,3.96401E-07,-0.171021397,3.841152297,0.003027574,-0.00019596,0.814550109
name_24,B,10,-0.000160719,-2.30828E-06,1.72226E-07,0.22150757,2.139871741,0.000649115,-0.000875072,-0.081645178
name_24,B,11,-0.000103512,-2.37608E-06,1.71885E-07,-0.119050644,1.947532959,0.00059133,-0.000887575,-0.052583975
name_24,B,12,0.000215576,-1.62073E-06,1.34022E-07,-0.268392912,1.990155173,0.000796621,-0.000534327,0.109512832
name_24,B,13,-0.000303295,-2.83723E-06,2.40072E-07,-0.264219625,2.137368118,0.000474652,-0.001316431,-0.154073971
name_24,B,14,0.000670326,-5.46147E-07,1.85419E-07,0.488627119,2.263282842,0.001539353,-7.48587E-05,0.340525582
name_24,B,15,0.00102859,-6.10412E-06,1.64099E-06,0.256045218,1.473618629,0.003095106,-0.000522918,0.522523582
name_24,A,1,0.003099188,5.57275E-06,3.07444E-06,0.215765791,2.295830321,0.00633823,-6.18636E-05,1.574387468
name_24,A,2,0.002790153,3.43612E-06,1.48406E-06,-0.414632577,2.712985805,0.004928969,-2.01566E-05,1.417397605
name_24,A,3,0.000267307,1.22447E-06,1.93683E-07,0.767943341,2.884097878,0.001332698,-0.000366619,0.135792091
name_24,A,4,0.000163554,7.52888E-09,6.123E-08,-0.26092941,2.380510612,0.000613662,-0.00041863,0.083085621
name_24,A,5,-0.000109641,-5.65062E-08,5.128E-08,0.553925895,2.475216709,0.000390171,-0.000603626,-0.055697491
name_24,A,6,0.000706511,3.56049E-06,3.75959E-07,0.800128219,2.893811657,0.002213947,-0.000177158,0.358907475
name_24,A,7,0.000257719,3.13234E-07,7.69732E-08,0.151122593,2.342055534,0.000808662,-0.000343285,0.130921444
name_24,A,8,0.001111166,3.86036E-06,4.02138E-07,-0.261173793,2.129670109,0.002277758,-1.14289E-05,0.564472527
name_24,A,9,0.001081119,5.22111E-06,7.01362E-07,0.202231708,1.790833064,0.00261933,-0.000223443,0.549208638
name_24,A,10,0.000279872,3.95839E-07,9.99819E-08,-0.416242802,2.890011444,0.000794701,-0.000584502,0.14217475
name_24,A,11,-5.25604E-05,-9.9472E-08,9.03897E-08,-0.170657804,2.469858235,0.000543326,-0.000817377,-0.026700691
name_24,A,12,0.00042447,2.24859E-06,2.00217E-07,0.404396732,1.952023192,0.001300568,-0.000283707,0.215630647
name_24,A,13,0.000147975,1.02354E-06,1.48203E-07,1.000718763,4.315158288,0.001261125,-0.000542318,0.075171146
name_24,A,14,0.000850903,2.53109E-06,2.50636E-07,-0.609059142,2.006410275,0.00156771,-8.80566E-05,0.432258857
name_24,A,15,0.003137916,3.65373E-06,2.12402E-06,-0.464253965,2.292074918,0.005257507,-1.42888E-05,1.594061192
name_25,C,1,0.006830059,1.0445E-05,7.02543E-06,-1.557164545,4.145793479,0.009544483,-7.27226E-05,3.469670065
name_25,C,2,0.00546066,8.67868E-06,6.12984E-06,-0.910746242,2.770090886,0.008414744,-0.000109235,2.774015161
name_25,C,3,0.004756579,5.51873E-06,5.49951E-06,-0.866112619,2.631709397,0.007493168,-5.08999E-05,2.416341996
name_25,C,4,0.000911229,-1.73877E-06,4.78586E-07,0.036165961,1.943551629,0.002064933,-0.000371949,0.462904089
name_25,C,5,0.001127166,-3.29136E-06,1.04629E-06,0.22414256,1.679112949,0.002836577,-0.000533083,0.572600282
name_25,C,6,0.00130381,-3.49657E-06,2.0077E-06,0.337894751,1.563967138,0.003589434,-0.000567403,0.662335389
name_25,C,7,0.003832723,4.9368E-06,2.55051E-06,-0.765782285,2.624696721,0.006180283,-0.0003296,1.947023425
name_25,C,8,0.001793629,-1.83128E-06,1.78664E-06,0.172724045,1.51469077,0.003868417,-8.75729E-05,0.911163662
name_25,C,9,0.004263523,4.45686E-06,3.07147E-06,-1.055991919,3.394704695,0.006528419,-5.22825E-05,2.165869841
name_25,C,10,0.005161218,5.589E-06,5.2565E-06,-0.595898209,2.39270593,0.00860819,-0.00032037,2.621898626
name_25,C,11,0.004249714,1.52994E-06,3.84347E-06,-0.352630307,2.260396027,0.00713484,-0.000146516,2.158854462
name_25,C,12,0.003372811,2.74205E-06,1.99428E-06,-0.861797658,3.124392592,0.005258967,-1.49969E-05,1.713387972
name_25,C,13,0.001837104,-8.02348E-07,1.22062E-06,0.103232939,1.711356718,0.003641818,-0.000202293,0.933248942
name_25,C,14,0.002901702,2.56485E-06,1.38962E-06,-0.710532453,3.052509914,0.004673349,-0.000139617,1.474064724
name_25,C,15,0.003766439,3.96176E-06,2.85987E-06,-0.725256032,2.87140086,0.006228595,-0.000131941,1.913351123
name_25,A,1,0.001802084,1.32938E-05,6.85851E-06,0.920647815,2.601477814,0.008031289,-0.001801477,0.915458782
name_25,A,2,0.004582197,1.87047E-05,1.13749E-05,0.830351967,2.453287909,0.012440607,-0.000472256,2.327755827
name_25,A,3,0.002238785,1.33251E-05,4.90742E-06,0.667776021,1.959749463,0.007252021,-0.000329271,1.137302813
name_25,A,4,-0.00119387,4.31086E-07,9.0266E-07,-0.092232576,1.747431101,0.000508767,-0.002819857,-0.606485773
name_25,A,5,0.000630353,6.91615E-06,1.74051E-06,0.713808281,2.395112972,0.003780377,-0.001240342,0.320219195
name_25,A,6,-1.23086E-05,6.24877E-06,2.046E-06,0.601413469,2.935313447,0.003440497,-0.002351372,-0.006252748
name_25,A,7,0.000114503,-8.8317E-07,1.11235E-06,-0.785149533,3.84865722,0.002232413,-0.002717992,0.058167383
name_25,A,8,-0.000310807,4.47467E-06,1.28429E-06,0.551467402,2.716455807,0.002464678,-0.002100088,-0.1578902
name_25,A,9,0.002149338,9.35738E-06,2.5304E-06,0.579087829,1.961779178,0.005490215,-3.68712E-05,1.09186393
name_25,A,10,5.29097E-05,-2.54999E-07,1.24522E-06,-0.646368563,4.02516336,0.002468272,-0.002935562,0.026878126
name_25,A,11,0.001786685,4.59749E-06,9.16437E-07,0.170719091,2.25355391,0.003726563,-0.000160913,0.907636124
name_25,A,12,0.00141181,7.32632E-06,1.46513E-06,0.573005168,1.944809353,0.003982657,-0.000109904,0.717199485
name_25,A,13,-0.00014503,-8.37046E-07,3.64301E-07,-0.630175474,3.049918351,0.000850715,-0.001641561,-0.073675481
name_25,A,14,0.000716824,5.80234E-06,1.29578E-06,0.879824683,2.60718474,0.003588204,-0.000704024,0.364146506
name_25,A,15,0.001016238,9.39146E-06,3.68871E-06,0.974557117,2.892642091,0.006062896,-0.001385468,0.516248958
name_25,B,1,-0.006837305,-4.01592E-05,3.67646E-05,0.086405495,1.605277737,0.003310887,-0.016118792,-3.473350764
name_25,B,2,-0.014604486,-7.91886E-05,0.000141507,0.034389545,1.437104313,0.002673264,-0.03214803,-7.419078651
name_25,B,3,-0.003056991,-2.96006E-05,2.14361E-05,-0.270039778,1.662386813,0.003291957,-0.011808108,-1.552951494
name_25,B,4,-0.008160344,-2.86551E-05,1.85146E-05,0.415797125,1.770810383,0.000847974,-0.013962135,-4.145454504
name_25,B,5,-0.005708648,-2.83672E-05,1.78972E-05,-0.084891691,1.575925373,0.00068139,-0.013205199,-2.89999308
name_25,B,6,-0.000291542,-9.83632E-06,2.83487E-06,0.376984673,1.905025539,0.003067619,-0.00280116,-0.148103324
name_25,B,7,-0.005518265,-2.23648E-05,1.15427E-05,0.443251506,1.76367827,0.000809045,-0.010241676,-2.803278816
name_25,B,8,-0.00219685,-1.35862E-05,4.94501E-06,0.689232073,2.080685061,0.00253448,-0.004919112,-1.11599998
name_25,B,9,-0.000233801,-9.44446E-06,2.51962E-06,0.515802908,2.23048271,0.003185165,-0.002608381,-0.118770789
name_25,B,10,-0.006025557,-2.31228E-05,1.28472E-05,0.634639075,2.0168561,0.000756838,-0.010494244,-3.06098293
name_25,B,11,-0.005227065,-2.24901E-05,1.13495E-05,0.337412364,1.874906719,0.000703772,-0.010315634,-2.655349086
name_25,B,12,-0.00268186,-1.77417E-05,7.27123E-06,0.173955811,1.688169239,0.002057535,-0.006942338,-1.362384893
name_25,B,13,-0.004797914,-1.82563E-05,7.51726E-06,0.381349176,1.825028963,0.000592402,-0.008642254,-2.437340135
name_25,B,14,-0.003596683,-1.93258E-05,8.28938E-06,-0.010056009,1.61114375,0.000923725,-0.008301609,-1.82711507
name_25,B,15,-0.001624631,-1.65555E-05,6.81215E-06,-0.128138791,1.849654659,0.002904525,-0.006531346,-0.825312376
name_18,C,1,0.000515525,-7.23631E-08,1.45877E-07,0.655553925,3.129235553,0.001524085,-0.000143007,0.261886882
name_18,C,2,0.000187317,-9.75924E-07,1.6951E-06,0.305029178,1.991102696,0.003254762,-0.0016271,0.095157044
name_18,C,3,0.000884772,-1.94626E-06,5.01702E-07,0.632156652,3.113630433,0.002678561,-0.000280288,0.449464018
name_18,C,4,-0.000651715,8.13012E-07,1.29695E-06,0.50674074,1.888838997,0.001862719,-0.002382639,-0.33107128
name_18,C,5,0.000101233,2.54233E-06,1.10278E-06,0.331869839,1.983443372,0.002026869,-0.001486468,0.051426369
name_18,C,6,0.001546527,8.63261E-07,3.62098E-07,-0.343996367,2.990128388,0.002614715,-0.000265812,0.785635844
name_18,C,7,0.000656398,3.60508E-06,5.54871E-07,0.408150516,3.137629113,0.002476008,-0.000858679,0.333450297
name_18,C,8,0.000813524,-2.12494E-08,3.51687E-07,-0.152095288,2.208876151,0.001947422,-0.000375589,0.413270006
name_18,C,9,0.000806379,-4.33507E-07,4.189E-07,0.107870772,1.913033358,0.002080556,-0.000319765,0.409640416
name_18,C,10,0.000753255,-7.59754E-07,1.58464E-07,0.501713679,3.15035806,0.001781904,-7.69986E-05,0.382653581
name_18,C,11,0.000843552,1.03144E-07,2.53374E-07,0.005649951,1.778143953,0.001729706,-8.81476E-05,0.428524527
