name,task,channel,avg,slope,variance,skewness,kurtosis,max,min,sum
name_1,A,1,-0.002108614,-4.6618E-05,1.68976E-06,0.600987184,2.016574135,0.000665104,-0.003485454,-0.193992531
name_1,A,2,-0.002066564,-4.03906E-05,1.56096E-06,0.672707787,2.271749474,0.000798937,-0.003485883,-0.190123843
name_1,A,3,-0.001491032,-3.9097E-05,1.16488E-06,0.182276425,1.414103313,8.28144E-05,-0.002787502,-0.137174907
name_1,A,4,-0.002289702,-5.31909E-05,2.18211E-06,0.460032423,1.670571992,0.000331061,-0.003854936,-0.210652545
name_1,A,5,-0.00051665,-5.64369E-06,1.31978E-07,0.609986848,2.299420096,0.00034775,-0.000956189,-0.047531832
name_1,A,6,-0.000899279,-2.2155E-05,3.65119E-07,0.323597703,1.580341282,0.000110436,-0.001588685,-0.082733664
name_1,A,7,-0.001428882,-3.4053E-05,8.78096E-07,0.384484998,1.691168805,0.000314922,-0.002497428,-0.131457126
name_1,A,8,-0.00070904,-1.83576E-05,2.46163E-07,0.153785161,1.635802272,0.000194583,-0.001345415,-0.06523171
name_1,A,9,-0.0007087,-1.61363E-05,1.99568E-07,0.508547524,1.864075451,0.000184557,-0.001199282,-0.065200417
name_1,A,10,-0.001525887,-3.72024E-05,1.03419E-06,0.331656926,1.629558014,0.000268167,-0.002705049,-0.140381622
name_1,A,11,-0.000471399,-9.87591E-06,9.9512E-08,0.266473258,1.970082584,0.00020156,-0.000901945,-0.043368723
name_1,A,12,-0.000702494,-1.32856E-05,1.73811E-07,0.736424735,2.287626186,0.000235919,-0.00115467,-0.064629419
name_1,A,13,-0.002031947,-4.49335E-05,1.72251E-06,0.471921944,1.653180645,0.00018605,-0.003478369,-0.186939091
name_1,A,14,-0.00063707,-8.93485E-06,1.53901E-07,0.63009937,2.271181971,0.00026697,-0.001091457,-0.05861045
name_1,A,15,-0.001508171,-3.15852E-05,7.88496E-07,0.795819793,2.390499217,0.0005616,-0.002396539,-0.138751736
name_1,B,1,-0.001712487,-4.44055E-05,1.4176E-06,0.147422252,1.649611775,0.000314098,-0.003356229,-0.157548789
name_1,B,2,-0.002237131,-5.86247E-05,2.45744E-06,0.086861921,1.704819643,0.000409028,-0.004565445,-0.205816062
name_1,B,3,-0.000881609,-3.05146E-05,7.07345E-07,-0.449896553,1.688681693,2.10327E-05,-0.002371521,-0.081108033
name_1,B,4,-0.001840248,-5.71792E-05,2.40892E-06,-0.187500688,1.478726239,2.93766E-05,-0.004188287,-0.169302846
name_1,B,5,-0.000524604,-1.17441E-05,1.0301E-07,0.524566438,2.514360567,0.000219146,-0.001035713,-0.048263574
name_1,B,6,-0.000566118,-1.9913E-05,3.05348E-07,-0.292177365,1.502460664,7.28213E-05,-0.001451606,-0.052082826
name_1,B,7,-0.001587462,-4.39948E-05,1.38655E-06,-0.037592064,1.616366408,0.000214415,-0.003410489,-0.146046484
name_1,B,8,-0.000786433,-2.16764E-05,3.38043E-07,0.014753994,1.548592639,9.45522E-05,-0.00163687,-0.07235188
name_1,B,9,-0.000691889,-2.14927E-05,3.39826E-07,-0.183365369,1.495956531,1.3066E-05,-0.001613382,-0.063653796
name_1,B,10,-0.00164752,-4.05985E-05,1.19557E-06,0.293004252,1.721455406,0.000280774,-0.003142253,-0.151571823
name_1,B,11,-0.001006741,-2.71546E-05,5.2836E-07,0.045201957,1.612894013,0.000133503,-0.002106828,-0.092620218
name_1,B,12,-0.000740457,-2.25149E-05,3.68825E-07,-0.306273518,1.703874704,6.45674E-05,-0.001785294,-0.06812208
name_1,B,13,-0.001140598,-3.06207E-05,6.71449E-07,0.046749634,1.628970708,0.000142304,-0.002370759,-0.104935025
name_1,B,14,-0.001308381,-3.57033E-05,9.36306E-07,0.092669716,1.43559931,8.3574E-05,-0.00252354,-0.120371088
name_1,B,15,-0.001302859,-3.32305E-05,8.01499E-07,0.214920855,1.606138621,0.000204114,-0.002442216,-0.119862992
name_1,C,1,-0.000362356,-2.19082E-05,4.81871E-07,-0.738810674,2.024449611,0.000350757,-0.001703429,-0.033336756
name_1,C,2,-0.001257953,-4.47358E-05,1.54182E-06,-0.389065608,1.527465339,2.89381E-05,-0.003249453,-0.115731657
name_1,C,3,-0.000868825,-1.9825E-05,3.46496E-07,0.397571922,1.516113082,2.4464E-05,-0.001532696,-0.079931867
name_1,C,4,-0.001153217,-1.8296E-05,5.20835E-07,0.452545594,1.852992488,0.00010916,-0.002029117,-0.106095955
name_1,C,5,8.62744E-05,-1.35656E-05,3.79331E-07,-0.508808564,2.059926866,0.000848795,-0.001105992,0.007937242
name_1,C,6,-0.000359821,-1.11865E-05,1.03895E-07,0.098000695,1.299219488,7.64789E-05,-0.000747229,-0.033103516
name_1,C,7,-0.000419696,-1.40557E-05,1.51734E-07,-0.222207413,1.371458315,1.74904E-05,-0.000964677,-0.038612053
name_1,C,8,-0.000229308,-9.75048E-06,8.15278E-08,-0.318039882,1.418017085,9.68836E-05,-0.000642721,-0.021096366
name_1,C,9,-0.000185715,-7.22879E-06,4.51207E-08,-0.099457977,1.328536313,8.40847E-05,-0.000465032,-0.01708579
name_1,C,10,-0.000479987,-9.65601E-06,8.64924E-08,0.617473604,1.890626212,7.67364E-05,-0.000795259,-0.044158811
name_1,C,11,6.89509E-05,-7.16431E-06,1.11673E-07,-0.282496294,1.745889943,0.00050624,-0.000478253,0.006343483
name_1,C,12,-0.000801688,-1.63393E-05,2.54406E-07,0.538717009,1.75478385,6.74539E-05,-0.001358784,-0.073755337
name_1,C,13,-0.000445006,-1.25066E-05,1.2625E-07,0.125758364,1.31266707,2.74946E-05,-0.000876274,-0.04094059
name_1,C,14,-0.000617975,-1.93261E-05,2.97229E-07,-0.041928687,1.279390571,4.27911E-05,-0.00132156,-0.05685374
name_1,C,15,-0.000354138,-1.39639E-05,1.57244E-07,-0.44617233,1.58700773,6.90835E-05,-0.001007267,-0.032580651
name_2,A,1,-9.37229E-05,-1.2351E-05,1.93587E-07,-0.546007983,1.954968959,0.000423575,-0.000940513,-0.008622502
name_2,A,2,-0.000816427,-3.55855E-05,1.08274E-06,-0.736702389,1.976800363,0.000147007,-0.002860587,-0.075111294
name_2,A,3,-0.00133207,-5.948E-05,3.22568E-06,-1.020799106,2.547897733,0.000154091,-0.005423778,-0.1225504
name_2,A,4,-0.000311889,-1.37523E-05,1.60649E-07,-0.580772815,1.747997998,9.80826E-05,-0.001030198,-0.028693744
name_2,A,5,-0.000541816,-2.21433E-05,4.14524E-07,-0.846330332,2.190750064,5.41852E-05,-0.001886942,-0.049847096
name_2,A,6,-0.000435281,-1.63951E-05,2.28353E-07,-0.990564521,2.600308326,0.000110971,-0.001537682,-0.04004584
name_2,A,7,-0.000252871,-1.12652E-05,1.0859E-07,-0.628658488,1.804243508,7.53567E-05,-0.000857338,-0.023264111
name_2,A,8,-0.000354045,-1.23858E-05,1.20976E-07,-0.807836926,2.360978096,4.29741E-05,-0.001135924,-0.03257215
name_2,A,9,-0.000312213,-1.20075E-05,1.24094E-07,-1.062107909,2.781102298,5.06668E-05,-0.001163675,-0.028723619
name_2,A,10,-0.00014176,-8.99858E-06,8.31162E-08,-0.821668164,2.243040575,0.000149397,-0.000753484,-0.013041955
name_2,A,11,-0.000177092,-6.66398E-06,4.09571E-08,-1.261297807,3.357560629,5.26308E-05,-0.000710951,-0.016292502
name_2,A,12,-9.568E-05,-3.85123E-06,1.68961E-08,-1.568661963,4.28485808,4.24672E-05,-0.000477889,-0.008802556
name_2,A,13,-0.000403602,-1.34034E-05,1.3639E-07,-0.632134538,2.093771875,4.96873E-05,-0.001174892,-0.037131355
name_2,A,14,-0.000298242,-8.4438E-06,5.35577E-08,-0.493249474,2.42794194,9.01219E-05,-0.000796022,-0.027438293
name_2,A,15,-0.000185722,-8.78679E-06,7.57473E-08,-1.286863429,3.324324268,1.56988E-05,-0.000917659,-0.017086394
name_2,C,1,0.000185074,4.27965E-06,1.34921E-08,-0.407540678,2.414100281,0.000386826,-7.69346E-05,0.017026807
name_2,C,2,-0.000169153,-1.0581E-05,1.12782E-07,-0.429324031,1.631846033,0.000221737,-0.000700574,-0.015562106
name_2,C,3,-0.000578428,-2.89796E-05,7.61185E-07,-0.644166714,1.862743829,0.000320084,-0.002189244,-0.053215339
name_2,C,4,-8.84968E-05,-1.02434E-05,1.36001E-07,-0.791324479,2.277076196,0.00030747,-0.000846477,-0.00814171
name_2,C,5,-0.000498314,-1.93313E-05,2.98698E-07,-0.569270855,1.763457087,4.59271E-05,-0.001495897,-0.045844888
name_2,C,6,-0.000587381,-1.9981E-05,3.01281E-07,-0.384679651,1.598608595,7.24986E-06,-0.001512853,-0.054039023
name_2,C,7,-0.000452504,-1.96634E-05,3.274E-07,-0.480118231,1.602372517,0.000158457,-0.001375582,-0.041630353
name_2,C,8,-0.000248546,-7.55584E-06,4.46801E-08,-0.779822628,2.726239295,6.41662E-05,-0.000751438,-0.022866217
name_2,C,9,-0.000364613,-1.03391E-05,7.65771E-08,-0.142116864,1.704723642,5.45481E-05,-0.000832039,-0.033544415
name_2,C,10,-0.000798923,-2.5544E-05,5.01854E-07,-0.087386626,1.324679464,6.38663E-05,-0.0017262,-0.073500889
name_2,C,11,-0.000401595,-1.51958E-05,1.83506E-07,-0.641929846,1.885110249,5.70073E-06,-0.001221228,-0.036946729
name_2,C,12,-0.000313814,-1.06462E-05,8.54514E-08,-0.474669512,1.755145626,3.24386E-06,-0.000851057,-0.028870911
name_2,C,13,-0.000676508,-2.58424E-05,5.2991E-07,-0.477386362,1.634584433,8.09785E-05,-0.001914793,-0.062238694
name_2,C,14,-0.000691467,-1.53723E-05,1.77624E-07,0.588456121,2.071798819,0.000173054,-0.001243247,-0.063614945
name_2,C,15,-0.000279824,-9.48035E-06,6.81347E-08,-0.273659728,1.540378721,2.96975E-05,-0.0007119,-0.025743825
name_2,B,1,0.000244712,-6.70669E-07,6.40384E-08,0.000513453,1.54929422,0.000603756,-0.000158702,0.022513518
name_2,B,2,0.000797823,-1.0156E-05,1.0189E-06,-0.224328845,1.667905038,0.002119054,-0.001018354,0.07339971
name_2,B,3,-0.000264703,-1.65999E-05,2.78871E-07,-0.404783289,1.585631693,0.000359501,-0.001077914,-0.024352717
name_2,B,4,-8.44241E-05,-8.16959E-06,8.08735E-08,-0.235768296,1.543365249,0.000283082,-0.000507435,-0.007767016
name_2,B,5,0.000144987,-8.78634E-06,1.97276E-07,-0.187855305,1.658351619,0.000739217,-0.000567,0.013338817
name_2,B,6,0.000175949,-3.73523E-06,7.13686E-08,0.126359364,1.47159139,0.000568073,-0.000218303,0.016187268
name_2,B,7,-0.000186263,-9.21604E-06,9.01637E-08,-0.143716121,1.448292781,0.00020676,-0.000620888,-0.017136207
name_2,B,8,-0.000288358,-8.6494E-06,5.69537E-08,-0.037614043,1.312543089,6.51615E-06,-0.000594172,-0.026528906
name_2,B,9,-0.00022694,-7.36601E-06,4.27493E-08,-0.135160112,1.289945803,5.61869E-06,-0.000503961,-0.020878504
name_2,B,10,-0.000408181,-1.1026E-05,1.34841E-07,-0.027845388,1.427155275,7.67322E-05,-0.000922182,-0.037552656
name_2,B,11,-0.000198624,-7.21238E-06,4.52085E-08,-0.169839786,1.311126353,5.30152E-05,-0.000495521,-0.018273408
name_2,B,12,-0.000232363,-8.17145E-06,5.26826E-08,-0.308933107,1.376016828,2.04199E-05,-0.000563634,-0.021377394
name_2,B,13,8.48804E-05,-5.44894E-06,7.59294E-08,-0.0440219,1.583878904,0.000474065,-0.000318911,0.007808998
name_2,B,14,-0.000185396,-6.11045E-06,3.65348E-08,0.085589424,1.373482358,8.07176E-05,-0.000434333,-0.017056397
name_2,B,15,-5.89165E-05,-3.12124E-06,1.075E-08,0.069304604,1.430523665,8.89288E-05,-0.000194709,-0.005420322
name_3,B,1,-0.000602399,-5.68908E-05,3.80586E-06,-0.143060897,1.517554594,0.001999069,-0.00334967,-0.055420736
name_3,B,2,-0.001232172,-3.59146E-05,1.2122E-06,0.361583157,1.449638199,0.00048375,-0.002445625,-0.113359796
name_3,B,3,-0.000623465,-1.19461E-05,3.53315E-07,-0.064643993,1.603774337,0.000247458,-0.001501265,-0.057358762
name_3,B,4,-0.000407542,-1.35254E-05,2.21588E-07,0.359422635,1.609585466,0.000353642,-0.000987123,-0.037493872
name_3,B,5,-0.000614413,-1.8075E-05,3.1033E-07,0.333303542,1.440028694,0.000244397,-0.001245052,-0.056525978
name_3,B,6,-0.000749559,-1.72971E-05,2.56751E-07,0.450398891,1.499300399,2.57456E-05,-0.001285218,-0.068959458
name_3,B,7,-0.000639451,-2.26974E-05,4.17508E-07,-0.01574429,1.51046333,0.000256239,-0.001727592,-0.058829498
name_3,B,8,-0.000211422,-9.59972E-06,8.80619E-08,0.037862276,1.375340279,0.000200967,-0.000577057,-0.019450829
name_3,B,9,-0.0004643,-1.42691E-05,1.84538E-07,0.144407169,1.338644719,0.000137299,-0.000993452,-0.042715636
name_3,B,10,-0.000554117,-1.98846E-05,3.27677E-07,0.046592883,1.418163789,0.000245494,-0.001403938,-0.050978773
name_3,B,11,-0.000632941,-2.63592E-05,6.02237E-07,-0.085787347,1.405234819,0.000390968,-0.001717236,-0.058230553
name_3,B,12,-0.000418347,-1.39131E-05,2.41633E-07,0.265909876,1.590777914,0.000354207,-0.00105275,-0.038487884
name_3,B,13,-0.000432661,-1.9529E-05,3.63182E-07,0.132126574,1.461001138,0.000452751,-0.001286706,-0.039804819
name_3,B,14,4.22059E-05,-6.56019E-06,1.04706E-07,0.416238466,1.679595406,0.000577382,-0.000536649,0.003882939
name_3,B,15,-0.000437647,-1.96967E-05,4.20247E-07,0.19429366,1.446688487,0.000529913,-0.00123809,-0.040263522
name_3,A,1,-0.000984409,-7.27204E-06,7.16984E-07,0.798931813,3.553389372,0.00166441,-0.002245371,-0.090565635
name_3,A,2,0.0007903,4.51401E-06,6.38847E-07,0.072168727,1.577844608,0.001956029,-0.000617549,0.072707593
name_3,A,3,0.000382777,-6.92286E-06,4.86135E-07,-0.527344995,2.460480317,0.001280138,-0.00126774,0.035215485
name_3,A,4,-0.00042744,-2.65063E-05,7.61876E-07,-1.029424751,2.596034703,0.000379251,-0.002391237,-0.03932446
name_3,A,5,0.000167847,-3.74087E-06,1.60933E-07,-0.554227753,2.659332774,0.000700097,-0.000809961,0.015441894
name_3,A,6,0.000272715,6.04652E-06,8.00453E-08,0.066205136,1.548802426,0.000684573,-0.000130974,0.025089797
name_3,A,7,0.000382919,1.02857E-05,1.01852E-07,-0.308857595,1.448514504,0.000760342,-0.000102307,0.035228565
name_3,A,8,-0.000157806,-4.28827E-06,2.65262E-08,-0.828781995,3.848088376,0.000205248,-0.000599523,-0.014518188
name_3,A,9,0.000142517,1.50011E-06,8.14058E-08,-0.034692808,1.863564779,0.000565192,-0.000470092,0.013111559
name_3,A,10,0.000305976,6.65389E-06,7.1131E-08,-0.083376997,1.591022118,0.000677706,-9.48243E-05,0.028149798
name_3,A,11,0.000493851,1.25792E-05,2.06418E-07,-0.11162403,1.546241625,0.001113064,-0.000180452,0.045434334
name_3,A,12,0.000434833,-2.10978E-07,2.18658E-07,-0.091740073,1.706145987,0.001086131,-0.000464571,0.040004601
name_3,A,13,3.73541E-07,-9.37555E-06,2.03072E-07,-1.015263005,3.097530048,0.000508094,-0.001115048,3.43657E-05
name_3,A,14,0.000677244,6.7133E-06,2.73117E-07,0.025033407,1.487864901,0.001417886,-4.53601E-05,0.062306426
name_3,A,15,-0.002665632,-6.76746E-05,3.27579E-06,0.119182779,1.925514622,0.000702193,-0.005636646,-0.245238185
name_3,C,1,0.001304853,3.30442E-05,1.91289E-06,0.204543112,1.509001859,0.003400676,-0.000478535,0.12004649
name_3,C,2,0.000140758,-2.06408E-05,1.96333E-06,-1.212885554,4.050553789,0.001766217,-0.003967173,0.012949736
name_3,C,3,0.001008879,5.4533E-06,9.81221E-07,-0.099124457,1.732428603,0.002390988,-0.001027799,0.092816893
name_3,C,4,0.000115008,-1.63675E-05,7.27467E-07,-1.097325685,3.347519064,0.001026728,-0.002151561,0.010580725
name_3,C,5,0.000369379,-1.46179E-06,3.20822E-07,-0.465390259,2.606281807,0.001133471,-0.001082659,0.033982868
name_3,C,6,0.000368456,5.62948E-07,2.55992E-07,-0.315017979,2.374393687,0.001071765,-0.000898461,0.033897983
name_3,C,7,-8.09623E-06,-7.40816E-06,2.23664E-07,-1.365517548,4.462801735,0.00052417,-0.001455281,-0.000744853
name_3,C,8,0.000101037,-5.01016E-06,1.3058E-07,-1.025552262,3.523954441,0.000522377,-0.000905939,0.009295415
name_3,C,9,0.00033396,1.33424E-07,2.39795E-07,-0.390377048,2.551188044,0.00100856,-0.000937612,0.030724361
name_3,C,10,0.000100792,1.76167E-06,1.75156E-07,-0.203727277,2.449500486,0.000731313,-0.000995562,0.009272839
name_3,C,11,0.000355154,4.14817E-06,2.57848E-07,-0.010705055,2.01937145,0.001117503,-0.000827815,0.032674152
name_3,C,12,0.000520583,-4.00498E-07,3.53612E-07,-0.294416078,2.02055591,0.001314808,-0.000818703,0.047893653
name_3,C,13,-6.91663E-06,-9.55346E-06,3.86336E-07,-1.369838967,4.501674072,0.000694906,-0.001918946,-0.00063633
name_3,C,14,0.000249111,-7.89093E-06,3.83091E-07,-0.846376424,3.044554544,0.000985846,-0.001369425,0.022918211
name_3,C,15,0.000820159,1.1302E-05,6.84333E-07,0.160120919,1.573540685,0.002065212,-0.000686054,0.075454613
name_4,B,1,-0.0003357,-1.48811E-05,1.90173E-07,-0.313214273,1.631428196,0.000201886,-0.001113091,-0.030884391
name_4,B,2,-0.000706705,-1.39851E-05,1.85234E-07,0.692165826,1.824115692,3.66183E-05,-0.001135888,-0.065016817
name_4,B,3,-0.000278019,-6.14507E-06,3.91847E-08,0.303391543,1.518047895,1.8898E-05,-0.00052064,-0.025577777
name_4,B,4,-0.000507716,1.17916E-06,2.44666E-07,-0.023483071,1.491545332,0.000185858,-0.001208638,-0.04670988
name_4,B,5,-0.000701035,-1.0013E-05,1.58126E-07,0.832207512,2.456211656,0.000131692,-0.001153329,-0.064495182
name_4,B,6,-0.000524511,-9.14127E-06,1.05148E-07,0.535101822,1.871397418,3.95318E-05,-0.000904897,-0.048254989
name_4,B,7,-0.000399984,4.82588E-06,2.61935E-07,0.061596077,1.551569286,0.000375761,-0.0011076,-0.036798573
name_4,B,8,-0.000315855,1.43649E-06,1.1937E-07,0.084278857,1.61046933,0.000274008,-0.00079329,-0.02905869
name_4,B,9,-0.000469982,-4.05277E-07,2.01306E-07,0.107622236,1.607248344,0.000338369,-0.001082281,-0.04323837
name_4,B,10,-0.000389254,3.09069E-06,1.94424E-07,-0.032847318,1.486054778,0.000220929,-0.001015643,-0.035811339
name_4,B,11,-0.000580019,-5.34673E-06,1.32665E-07,0.369272568,2.116063275,0.000143947,-0.0010692,-0.053361722
name_4,B,12,-0.000701611,-1.57471E-05,2.01679E-07,0.535500045,1.632774862,3.61257E-05,-0.001139446,-0.064548213
name_4,B,13,-0.000512106,-2.82173E-07,1.78429E-07,0.048265919,1.603177349,0.000242121,-0.001102337,-0.047113753
name_4,B,14,-0.001035111,-2.01853E-05,4.05935E-07,0.646709954,1.802266388,4.97611E-05,-0.00170695,-0.095230214
name_4,B,15,-0.001820017,-5.81164E-05,2.57699E-06,-0.070507664,1.355452655,0.000192627,-0.003969271,-0.167441602
name_4,C,1,0.000328952,8.38121E-06,8.32668E-08,0.081074849,1.448023791,0.000743119,-4.50955E-05,0.030263541
name_4,C,2,0.000701057,1.54839E-05,2.16236E-07,-0.369339542,1.616495064,0.001255646,-5.40096E-05,0.064497288
name_4,C,3,0.000894398,2.31496E-05,3.82832E-07,-0.084831753,1.781617563,0.001838716,-0.000155819,0.082284571
name_4,C,4,0.00052113,7.83769E-06,7.89086E-08,-1.290794875,3.413590682,0.000747688,-0.00022088,0.047943939
name_4,C,5,0.000607093,5.59496E-06,2.3881E-07,-0.193240733,1.634222791,0.001249205,-0.000355278,0.055852552
name_4,C,6,0.000430493,8.3096E-06,8.63859E-08,-0.227905653,1.600275115,0.000809855,-2.43264E-05,0.039605352
name_4,C,7,0.000607549,7.03835E-06,1.87046E-07,-0.256045264,1.638675233,0.001159845,-0.000122874,0.055894494
name_4,C,8,0.000216905,3.38527E-06,2.3871E-08,-0.141562023,1.548093056,0.000422262,-1.74793E-05,0.019955226
name_4,C,9,0.000602066,1.37197E-05,1.72611E-07,-0.304022924,1.519797121,0.001105253,-1.82017E-05,0.055390052
name_4,C,10,0.000263877,1.08927E-05,1.76539E-07,0.164973727,1.583837588,0.000905259,-0.000302948,0.024276666
name_4,C,11,0.000469043,8.96363E-06,2.23826E-07,0.187002872,1.500200968,0.001178744,-0.00028673,0.043151935
name_4,C,12,0.000835688,2.00151E-05,3.07181E-07,-0.366197547,1.597886307,0.001468588,-8.57891E-05,0.076883334
name_4,C,13,0.000795241,1.47987E-05,2.73406E-07,-0.322193591,1.692338918,0.001450903,-7.24558E-05,0.073162146
name_4,C,14,0.000687796,1.42025E-05,2.76033E-07,-0.019537488,1.473687972,0.001415659,-2.51675E-05,0.063277214
name_4,C,15,0.00042254,-2.7549E-06,3.78824E-07,-0.59756901,2.696856965,0.001204483,-0.001191857,0.038873661
name_4,A,1,-0.000527517,-1.12045E-05,1.07864E-07,0.590638322,1.800178716,9.12153E-05,-0.00086864,-0.048531567
name_4,A,2,-0.000348941,-1.15755E-05,1.09023E-07,0.011298739,1.29646937,8.27629E-05,-0.000755804,-0.032102614
name_4,A,3,-5.53058E-05,-4.73409E-06,2.68882E-08,0.00691916,1.458745188,0.000174788,-0.000272758,-0.005088134
name_4,A,4,-0.000340491,-6.19232E-06,6.20654E-08,0.094649631,1.514182223,1.15547E-05,-0.000678066,-0.031325129
name_4,A,5,-0.000485555,-1.05561E-05,1.2007E-07,0.239853443,1.507084141,1.49482E-05,-0.000923595,-0.044671047
name_4,A,6,-0.000196302,-4.85245E-06,2.50471E-08,0.033669194,1.420349953,1.04104E-05,-0.000412089,-0.018059802
name_4,A,7,-0.000455603,-9.18649E-06,9.77945E-08,0.287809183,1.576035366,1.21814E-05,-0.000848328,-0.041915442
name_4,A,8,-0.000254193,-6.32428E-06,3.47296E-08,0.222313072,1.404381148,3.89532E-06,-0.000481705,-0.023385725
name_4,A,9,-0.000222078,-5.13342E-06,2.61978E-08,0.180900603,1.46770467,9.083E-06,-0.000430834,-0.020431215
name_4,A,10,-0.000255969,-6.56941E-06,3.94504E-08,0.176734452,1.378926833,1.6119E-05,-0.000504128,-0.023549171
name_4,A,11,-0.000521526,-1.27268E-05,1.41375E-07,0.269748793,1.421781531,1.21913E-05,-0.00096961,-0.047980347
name_4,A,12,-0.000187165,-5.9046E-06,2.90491E-08,-0.04433088,1.280513226,1.95504E-05,-0.000411986,-0.017219149
name_4,A,13,-0.000501414,-1.03803E-05,1.13494E-07,0.365430424,1.593279306,1.42091E-05,-0.000907343,-0.046130128
name_4,A,14,-0.0005149,-1.09134E-05,1.0494E-07,0.561805294,1.737893379,6.3089E-05,-0.000857207,-0.047370793
name_4,A,15,-0.000525565,-1.06364E-05,1.17097E-07,0.417810797,1.682557019,5.16689E-05,-0.000932865,-0.048351992
name_5,C,1,-0.000183521,-5.51177E-07,2.50263E-08,0.073514292,1.545530939,7.09221E-05,-0.000400945,-0.016883921
name_5,C,2,-0.00021472,-1.4092E-06,2.41084E-08,0.187606987,1.705101728,7.5617E-05,-0.000422936,-0.019754253
name_5,C,3,0.000365034,1.56458E-05,2.09395E-07,0.855637127,2.276007954,0.001371967,-4.3324E-05,0.03358316
name_5,C,4,-0.000111552,-1.72724E-06,4.01956E-09,0.853429752,2.501719283,2.85589E-05,-0.000192823,-0.010262779
name_5,C,5,6.83846E-05,9.44047E-06,1.219E-07,0.836081866,2.407485883,0.000824742,-0.000304328,0.006291381
name_5,C,6,0.000192933,1.2064E-05,1.5724E-07,1.112403385,2.876178284,0.001169032,-0.000161538,0.017749804
name_5,C,7,-1.56484E-06,1.16894E-06,5.32615E-09,0.934382661,3.277247801,0.000190342,-9.19437E-05,-0.000143965
name_5,C,8,3.97143E-05,6.8056E-06,7.22992E-08,1.094862382,3.065184788,0.000718035,-0.000231988,0.003653714
name_5,C,9,-0.000107268,6.81227E-06,1.48772E-07,0.870899016,2.908618315,0.000872946,-0.000546413,-0.009868677
name_5,C,10,-0.000136562,9.41471E-07,3.17455E-08,0.453724379,2.276955472,0.000293441,-0.000364753,-0.012563662
name_5,C,11,-0.000117782,3.91276E-06,7.32595E-08,0.805515651,2.837610285,0.000581122,-0.000430789,-0.010835972
name_5,C,12,4.0027E-05,8.28582E-06,1.07351E-07,1.040723516,2.958995336,0.000856853,-0.000295451,0.003682485
name_5,C,13,-0.000407089,-7.79382E-06,5.5686E-08,0.842749028,2.150958104,6.69764E-05,-0.000687199,-0.037452172
name_5,C,14,-0.000240629,-2.54612E-06,2.473E-08,0.230495105,1.867326982,4.34693E-05,-0.000456139,-0.022137861
name_5,C,15,-0.000395268,-8.47673E-06,5.7701E-08,0.624916484,1.993865309,6.33681E-05,-0.000781999,-0.03636466
name_5,A,1,-0.00043547,-1.35216E-05,1.84764E-07,-0.080435732,1.40451953,0.000116468,-0.001044738,-0.040063272
name_5,A,2,-0.000598001,-1.61992E-05,2.75745E-07,-0.068700921,1.413258151,6.46626E-05,-0.001342415,-0.055016111
name_5,A,3,0.000125267,-6.60848E-06,1.27692E-07,0.135175724,1.489976167,0.000651692,-0.000348071,0.01152457
name_5,A,4,-0.000451078,-9.38091E-06,1.31812E-07,-0.096738762,1.460022462,4.23138E-06,-0.000976692,-0.041499193
name_5,A,5,-0.000141116,-9.42182E-06,1.16784E-07,-0.12497573,1.564843836,0.000323042,-0.0006549,-0.0129827
name_5,A,6,0.000212376,-3.8344E-06,9.73389E-08,0.129947061,1.596883453,0.000679015,-0.000354232,0.019538572
name_5,A,7,-0.000449527,-1.3265E-05,1.87627E-07,-0.132324271,1.426431763,9.22438E-05,-0.001079146,-0.041356524
name_5,A,8,-0.000280201,-1.03467E-05,1.16017E-07,-0.123398562,1.465621491,0.000165734,-0.000776843,-0.025778479
name_5,A,9,-0.000169417,-1.06035E-05,1.5289E-07,-0.074000251,1.564862952,0.000373253,-0.00074816,-0.015586331
name_5,A,10,-0.000535325,-1.55381E-05,2.492E-07,-0.089126338,1.41200109,9.7679E-05,-0.001247115,-0.049249903
name_5,A,11,-0.000556576,-1.58426E-05,2.39733E-07,-0.047892217,1.382437392,5.90783E-05,-0.001238875,-0.051205004
name_5,A,12,-0.000115361,-6.74428E-06,5.7206E-08,-0.068572277,1.531010414,0.000213909,-0.000464611,-0.010613237
name_5,A,13,-0.00121073,-2.43475E-05,6.95463E-07,0.212907001,1.598383672,0.000126215,-0.002298141,-0.111387158
name_5,A,14,-0.000602053,-1.60227E-05,2.27252E-07,0.053284786,1.375254679,6.7519E-06,-0.001235926,-0.055388889
name_5,A,15,-0.00099046,-2.08511E-05,4.30775E-07,0.3429777,1.669872891,0.000150956,-0.001800569,-0.091122303
name_5,B,1,0.000120482,-5.79006E-06,9.82856E-08,0.055887758,1.486206101,0.000569535,-0.000314066,0.011084372
name_5,B,2,0.000137623,-1.08855E-05,2.73636E-07,-0.087342661,1.551518209,0.000855615,-0.000629221,0.012661287
name_5,B,3,2.27015E-05,3.36823E-07,3.42365E-08,0.635477606,3.23561227,0.000587069,-0.000229772,0.002088541
name_5,B,4,0.000327697,-4.54614E-06,1.79231E-07,-0.038719426,1.516103583,0.000915464,-0.000280624,0.030148131
name_5,B,5,-8.18161E-05,-5.37184E-07,2.8376E-08,0.610767953,3.560723655,0.00044774,-0.000319416,-0.007527085
name_5,B,6,-0.000142509,-1.9053E-06,5.72079E-08,0.125647822,2.20974662,0.000464105,-0.000493921,-0.013110804
name_5,B,7,0.000238699,-1.91928E-06,6.39654E-08,0.055648446,1.601849592,0.000606063,-0.000233778,0.021960275
name_5,B,8,-0.000174495,-2.90099E-06,2.33556E-08,-0.064149309,1.476744579,9.09122E-05,-0.000392189,-0.016053556
name_5,B,9,-0.000110116,-3.37758E-06,4.6561E-08,-0.181632936,1.721464492,0.000320584,-0.000447541,-0.010130627
name_5,B,10,-0.000429243,-1.05006E-05,1.11761E-07,0.030907123,1.438089232,8.55397E-06,-0.000886554,-0.039490385
name_5,B,11,-0.000632561,-1.38644E-05,2.02505E-07,0.156242177,1.530984832,3.86363E-05,-0.001225615,-0.058195597
name_5,B,12,-0.000421628,-9.73178E-06,1.20671E-07,-0.057324015,1.440918871,2.86583E-05,-0.000913565,-0.038789743
name_5,B,13,-0.000210658,-1.50558E-05,2.51234E-07,-0.267517755,1.51621548,0.000419796,-0.000960894,-0.019380528
name_5,B,14,-0.000240894,-1.19908E-05,1.37834E-07,-0.297313579,1.449147129,0.00020278,-0.000793307,-0.022162247
name_5,B,15,-2.6041E-05,-1.17702E-05,2.10281E-07,-0.416671663,1.805715235,0.000543566,-0.000792778,-0.002395773
name_6,C,1,0.000188875,6.72633E-06,3.48937E-08,0.494956105,1.674503739,0.000507105,-8.02773E-07,0.017376484
name_6,C,2,-0.000771182,-1.49907E-05,1.89004E-07,0.948779619,2.572903269,0.000216355,-0.001337883,-0.070948702
name_6,C,3,-0.000559185,-8.51339E-06,9.53103E-08,1.038937876,2.759155787,0.000158238,-0.000866953,-0.051445059
name_6,C,4,-0.000336095,-7.33286E-06,4.17334E-08,0.597351551,2.016342136,5.01307E-05,-0.000658395,-0.030920702
name_6,C,5,-0.000716337,-1.50355E-05,1.7975E-07,0.739438928,2.084415467,0.000134357,-0.001223971,-0.065902963
name_6,C,6,-0.001101282,-1.70642E-05,3.83302E-07,0.936584488,2.574962827,0.000291563,-0.001738567,-0.101317923
name_6,C,7,-0.000714128,-6.93197E-06,1.75906E-07,0.789584222,2.824016567,0.000319111,-0.001217191,-0.065699806
name_6,C,8,-0.000568682,-1.2741E-05,1.36331E-07,0.504490853,1.594193255,2.3148E-05,-0.000948918,-0.052318731
name_6,C,9,-0.000895829,-1.89662E-05,3.07014E-07,0.615657884,1.789599569,0.000102069,-0.001451635,-0.082416294
name_6,C,10,-0.000795994,-7.85017E-06,2.58899E-07,0.443804987,2.042875621,0.00027186,-0.001431131,-0.073231432
name_6,C,11,-0.000660594,-1.39278E-05,1.6377E-07,0.649285628,1.845929831,0.000103038,-0.001056408,-0.060774604
name_6,C,12,-0.000583294,-7.58926E-06,1.07789E-07,0.951219257,2.861127335,0.000216165,-0.000940842,-0.053663045
name_6,C,13,-0.000334154,-7.14183E-06,4.64725E-08,0.499175636,1.659295444,3.89329E-05,-0.000575925,-0.030742161
name_6,C,14,-0.000599965,-1.31236E-05,1.39295E-07,0.595635324,1.778615347,8.98483E-05,-0.000962362,-0.055196773
name_6,C,15,-0.000831051,-1.7475E-05,2.66432E-07,0.60335362,1.776918435,9.50549E-05,-0.001361467,-0.076456652
name_6,B,1,3.52585E-05,7.44992E-07,1.53387E-09,0.169672517,1.580518664,9.41962E-05,-3.95429E-05,0.003243781
name_6,B,2,-0.001657416,-3.70134E-05,1.13018E-06,0.474730634,1.71420147,0.000283072,-0.00284063,-0.152482286
name_6,B,3,-0.000832963,-2.17343E-05,4.10842E-07,0.100821555,1.387333242,1.30213E-05,-0.001666633,-0.076632567
name_6,B,4,-0.000989185,-2.17568E-05,3.61453E-07,0.631005531,2.080402936,0.00028494,-0.001637195,-0.091005035
name_6,B,5,-0.001028286,-2.59042E-05,5.27704E-07,0.206130516,1.48985371,0.000146147,-0.001931059,-0.094602285
name_6,B,6,-0.001553293,-3.93765E-05,1.22781E-06,0.213541082,1.444141534,0.000130093,-0.002903329,-0.142902966
name_6,B,7,-0.001099869,-2.13582E-05,3.8488E-07,1.054505139,2.991891868,0.000511837,-0.001698603,-0.101187979
name_6,B,8,-0.000532272,-2.2919E-05,5.11211E-07,-0.122884744,1.403800417,0.000390826,-0.001542753,-0.04896901
name_6,B,9,-0.001251051,-3.11174E-05,7.93868E-07,0.238111939,1.441309183,4.97507E-05,-0.002329712,-0.115096715
name_6,B,10,-0.000817172,-1.70492E-05,2.9977E-07,0.325172678,1.615387427,5.07387E-05,-0.001491033,-0.075179834
name_6,B,11,-0.001197822,-2.77935E-05,6.27007E-07,0.396959074,1.600504994,0.000151259,-0.002096202,-0.110199658
name_6,B,12,-0.001031296,-2.66513E-05,5.48634E-07,0.200732417,1.425478488,7.43054E-05,-0.00192295,-0.094879235
name_6,B,13,-0.000750268,-2.94828E-06,2.60681E-07,0.602473165,2.985262292,0.000620434,-0.001439444,-0.06902464
name_6,B,14,-0.001052224,-2.73868E-05,5.59295E-07,0.194476035,1.462383664,0.000100231,-0.001947842,-0.096804647
name_6,B,15,-0.0015297,-2.93725E-05,7.66436E-07,0.924266597,2.486634717,0.000505562,-0.002338357,-0.140732416
name_6,A,1,-0.000733011,-1.72042E-05,2.20334E-07,0.442013836,1.774033744,0.000146049,-0.001271125,-0.067437027
name_6,A,2,-0.001385796,-2.29075E-05,5.95739E-07,1.043475782,2.77850863,0.000479688,-0.002117043,-0.127493266
name_6,A,3,-0.000691954,-1.17589E-05,1.69868E-07,0.681372246,2.18366205,0.000184788,-0.001153918,-0.063659728
name_6,A,4,-0.000954119,-1.77823E-05,2.79838E-07,1.124741269,2.959374899,0.000390379,-0.001383727,-0.087778906
name_6,A,5,-0.000904867,-1.52806E-05,2.63047E-07,0.964119969,2.702150031,0.000340649,-0.001414215,-0.08324778
name_6,A,6,-0.00107847,-2.13813E-05,4.27432E-07,0.657179351,2.005986141,0.000255227,-0.001779226,-0.099219229
name_6,A,7,-0.000676285,-8.06909E-06,1.33071E-07,1.678116036,4.921924096,0.000487798,-0.00097917,-0.062218193
name_6,A,8,-3.68353E-05,-5.92917E-06,6.15035E-08,0.171424988,1.548420939,0.000337838,-0.000370189,-0.003388849
name_6,A,9,-0.000800597,-1.0552E-05,2.54677E-07,0.47160176,1.997156927,0.000240062,-0.00141525,-0.073654962
name_6,A,10,-4.95816E-05,-9.29537E-07,2.53095E-09,-0.063210843,1.564358403,2.34351E-05,-0.000123045,-0.004561508
name_6,A,11,-0.000737224,-1.26259E-05,1.81945E-07,0.819300427,2.344207078,0.000196062,-0.001180943,-0.06782463
name_6,A,12,-0.000571941,-8.32305E-06,1.0099E-07,1.067372844,3.005936293,0.000231705,-0.000889612,-0.052618567
name_6,A,13,0.000301536,1.0177E-05,9.1104E-08,-0.151711606,1.328574006,0.000651333,-0.000126421,0.027741292
name_6,A,14,-0.000633242,-1.39307E-05,1.61016E-07,0.517041795,1.763078618,0.000121969,-0.001070411,-0.058258308
name_6,A,15,-0.001144525,-2.19216E-05,4.18902E-07,1.013471622,2.756296811,0.000460438,-0.001731801,-0.105296288
name_8,A,1,-0.001977557,-5.53887E-05,2.2325E-06,0.027322952,1.459470022,7.14624E-05,-0.004007232,-0.181935232
name_8,A,2,-0.004426653,-0.000107319,8.42104E-06,0.347709865,1.729179134,0.000810443,-0.008155823,-0.40725205
name_8,A,3,-0.001225254,-2.84821E-05,5.9331E-07,0.416975503,2.153969786,0.000393941,-0.002404184,-0.112723369
name_8,A,4,-0.0021816,-6.57304E-05,3.13954E-06,-0.348987786,1.842139266,0.000329797,-0.005511814,-0.200707197
name_8,A,5,-0.001252668,-3.7751E-05,1.06341E-06,-0.536708591,2.225131868,0.000357499,-0.003407333,-0.115245475
name_8,A,6,5.85665E-05,-1.27237E-06,1.33095E-08,-0.45660723,2.302479719,0.000209513,-0.00019394,0.005388119
name_8,A,7,-0.003162274,-0.000105159,8.26163E-06,-0.428941916,1.72419363,5.09955E-05,-0.008438368,-0.290929194
name_8,A,8,-0.000661489,-3.01268E-05,7.89884E-07,-0.760773156,2.085328796,0.000193554,-0.00249434,-0.060856987
name_8,A,9,0.000505934,5.64676E-06,8.64824E-08,-0.762191309,2.64569765,0.000856249,-0.000179765,0.046545942
name_8,A,10,-0.00228286,-7.68906E-05,4.43832E-06,-0.452235073,1.752682643,2.10668E-05,-0.006219557,-0.210023158
name_8,A,11,-0.000404715,-2.47126E-05,6.1263E-07,-0.756206287,2.095571979,0.000394541,-0.001964789,-0.037233752
name_8,A,12,-0.000508212,-1.21691E-05,1.07437E-07,0.325258505,1.892346603,8.47261E-05,-0.000983329,-0.046755522
name_8,A,13,-0.001654394,-5.90012E-05,2.68516E-06,-0.597171895,1.922445152,1.03768E-05,-0.004930979,-0.152204217
name_8,A,14,-0.001040769,-2.79422E-05,5.61379E-07,0.080025914,1.58054997,9.48055E-05,-0.002155638,-0.095750711
name_8,A,15,-0.001337068,-4.06672E-05,1.20411E-06,-0.203831332,1.569317199,3.00689E-05,-0.003146631,-0.123010296
name_8,C,1,4.78921E-05,-3.44812E-06,2.84651E-08,-0.291832548,1.782757199,0.000267517,-0.000251804,0.004406072
name_8,C,2,-0.000604794,-1.48068E-05,1.62832E-07,0.349379518,1.615712756,0.000113194,-0.001076345,-0.055641008
name_8,C,3,-0.000758431,-1.86966E-05,2.61704E-07,0.325685904,1.568765433,0.000122893,-0.001330246,-0.069775677
name_8,C,4,0.000184093,-7.11269E-07,2.86508E-08,-0.230345315,1.718243407,0.000406512,-0.000154896,0.016936538
name_8,C,5,-0.001517504,-3.28676E-05,8.4227E-07,0.670957622,2.054762399,0.000419462,-0.002431917,-0.139610373
name_8,C,6,0.000369819,2.41256E-06,5.49417E-08,-0.62880156,2.612469247,0.000661959,-0.000208836,0.034023328
name_8,C,7,0.000473579,3.64224E-08,1.45051E-07,-0.428502208,2.008375888,0.000945626,-0.000398673,0.043569247
name_8,C,8,-0.00063612,-1.9656E-05,2.8287E-07,-0.282212252,1.591252153,7.10442E-05,-0.001482602,-0.058523046
name_8,C,9,-0.000352158,-8.63458E-06,5.47462E-08,0.295328729,1.680175519,5.2713E-05,-0.000638507,-0.032398543
name_8,C,10,-0.000344772,-1.51112E-05,1.93067E-07,-0.493010005,1.790603299,0.00015329,-0.001181706,-0.031719067
name_8,C,11,-0.000383665,-1.27105E-05,1.21364E-07,-0.272372475,1.502349186,1.7916E-05,-0.000935759,-0.035297158
name_8,C,12,-0.000288967,-6.22402E-06,2.95311E-08,0.648379163,2.318466076,7.79883E-05,-0.000547322,-0.026584919
name_8,C,13,0.000136452,-2.8523E-06,4.17064E-08,-0.093931594,1.571743929,0.000415151,-0.00023961,0.012553619
name_8,C,14,-0.000357829,-1.11156E-05,9.04138E-08,-0.23692629,1.594400898,5.55543E-06,-0.000881948,-0.032920281
name_8,C,15,-2.48305E-05,-2.51847E-06,7.8479E-09,-0.644722517,2.596239412,8.56991E-05,-0.000249616,-0.00228441
name_8,B,1,-0.001786903,-4.5249E-05,1.47352E-06,0.205662005,1.70611948,0.000256521,-0.003604023,-0.164395108
name_8,B,2,-0.003332885,-7.26943E-05,4.01317E-06,0.646602178,2.163643251,0.00089499,-0.005955016,-0.306625457
name_8,B,3,-0.000611899,-1.36075E-05,1.44992E-07,0.28683483,2.912005366,0.000256588,-0.001402782,-0.056294731
name_8,B,4,-0.002117869,-5.52996E-05,2.19008E-06,-0.023673331,1.991313257,0.000421907,-0.004900964,-0.194843942
name_8,B,5,-0.000426509,-1.00062E-05,1.49954E-07,-1.092178315,4.736518674,0.000349154,-0.001644582,-0.03923884
name_8,B,6,0.000108974,-4.83866E-06,7.38777E-08,-0.431480591,1.982495611,0.000447809,-0.000444415,0.01002565
name_8,B,7,-0.002694216,-7.4814E-05,4.00631E-06,-0.160094873,1.870358804,0.000413919,-0.006424754,-0.247867861
name_8,B,8,0.000599191,4.77015E-06,1.8367E-07,-0.298487309,1.707997798,0.001141841,-0.00018547,0.055125546
name_8,B,9,0.001501718,2.84988E-05,7.26734E-07,-0.950210277,2.403085112,0.002211181,-0.00039154,0.138158084
name_8,B,10,-0.001395693,-4.37996E-05,1.4171E-06,-0.493870014,2.031221367,0.000113753,-0.003878447,-0.128403802
name_8,B,11,0.000260035,-4.64125E-06,1.58594E-07,-0.502278135,2.110149507,0.000743491,-0.00062685,0.023923245
name_8,B,12,-0.00065178,-2.06028E-05,3.1201E-07,-0.348292507,1.675245807,3.65875E-05,-0.001619111,-0.059963742
name_8,B,13,-0.001381157,-4.55436E-05,1.56615E-06,-0.621687238,2.165547075,6.91828E-05,-0.004115989,-0.127066484
name_8,B,14,-0.001642729,-3.85708E-05,1.08636E-06,0.396141254,1.980101262,0.000384758,-0.003220909,-0.151131061
name_8,B,15,-0.000907302,-2.95638E-05,6.51362E-07,-0.512845346,1.954893532,4.70373E-05,-0.002552773,-0.083471792
name_7,A,1,-0.000720961,-2.64814E-05,5.50256E-07,-0.343941369,1.501519878,0.000107122,-0.001869788,-0.066328419
name_7,A,2,-0.001133982,-2.69042E-05,5.44569E-07,0.40100342,1.698774155,0.000208049,-0.001970701,-0.104326345
name_7,A,3,-0.000482934,-1.69346E-05,2.19363E-07,-0.476632227,1.691668933,8.90788E-06,-0.001295965,-0.044429908
name_7,A,4,-0.000556784,-2.00883E-05,3.12112E-07,-0.448850067,1.63892055,3.49436E-05,-0.001509585,-0.051224144
name_7,A,5,-0.001165015,-3.32475E-05,8.02488E-07,-0.034638811,1.478457743,5.02386E-05,-0.002417297,-0.10718135
name_7,A,6,-0.000460229,-1.59761E-05,1.9411E-07,-0.502531088,1.813270838,1.39397E-05,-0.001304631,-0.04234108
name_7,A,7,-0.001436908,-3.34597E-05,8.56773E-07,0.453396351,1.694422841,0.000233836,-0.002434152,-0.132195568
name_7,A,8,-0.000462744,-1.88375E-05,2.90673E-07,-0.634737073,1.870923456,7.17082E-05,-0.001490167,-0.042572466
name_7,A,9,-0.000437033,-1.35928E-05,1.35121E-07,-0.307369219,1.654581374,2.23335E-05,-0.001068722,-0.040207007
name_7,A,10,-0.001052087,-2.85451E-05,5.93702E-07,0.076082759,1.483964732,0.000116659,-0.002046455,-0.096791961
name_7,A,11,-0.000480669,-1.77422E-05,2.47489E-07,-0.430190568,1.547448697,3.45714E-05,-0.001264155,-0.044221582
name_7,A,12,-0.000536285,-1.46742E-05,1.54315E-07,0.004906437,1.60626255,5.81519E-05,-0.001136183,-0.049338217
name_7,A,13,-0.000671251,-2.25865E-05,3.95546E-07,-0.208358506,1.362449801,4.6745E-05,-0.001551289,-0.061755084
name_7,A,14,-0.000459216,-1.746E-05,2.41292E-07,-0.563585079,1.790558065,3.95656E-05,-0.001373221,-0.042247868
name_7,A,15,-3.69571E-05,-9.54663E-06,1.30899E-07,-0.628132381,2.116635902,0.000374915,-0.000774191,-0.003400055
name_7,B,1,-0.001147286,-1.87503E-05,4.65461E-07,0.66965395,2.144991104,0.000251625,-0.001908543,-0.105550315
name_7,B,2,-0.000971674,-1.41554E-05,3.09642E-07,0.898624736,2.676995389,0.000370736,-0.001552097,-0.089393969
name_7,B,3,-0.000644625,-1.28391E-05,1.5408E-07,0.635728958,1.942849773,0.000122075,-0.001064768,-0.059305505
name_7,B,4,-0.000819487,-1.54426E-05,2.46693E-07,0.630867447,1.983608778,0.000152278,-0.001363891,-0.075392773
name_7,B,5,-0.000921219,-1.48433E-05,3.00017E-07,0.670622309,2.170381924,0.000219348,-0.001534989,-0.084752156
name_7,B,6,-0.000588114,-9.48376E-06,1.21843E-07,0.677661921,2.186476361,0.000141959,-0.00098,-0.054106443
name_7,B,7,-0.001056826,-1.01863E-05,4.4068E-07,0.571049738,2.218538506,0.000431738,-0.001848252,-0.097227975
name_7,B,8,-0.000706168,-1.50013E-05,1.99761E-07,0.535270305,1.71761313,6.7129E-05,-0.001187898,-0.064967444
name_7,B,9,-0.000521138,-8.42242E-06,9.83085E-08,0.619630581,2.109321224,0.00012296,-0.000880431,-0.04794468
name_7,B,10,-0.001075406,-1.84087E-05,3.93511E-07,0.772083639,2.225518033,0.000231872,-0.001738316,-0.098937317
name_7,B,11,-0.000656672,-1.04924E-05,1.72104E-07,0.42447219,1.824311234,7.52723E-05,-0.00116283,-0.06041378
name_7,B,12,-0.000622056,-5.98892E-06,1.56396E-07,0.527065641,2.144214425,0.000249811,-0.00109941,-0.05722911
name_7,B,13,-0.000777572,-7.42046E-06,2.41114E-07,0.524249891,2.138307853,0.00028809,-0.001372161,-0.071536645
name_7,B,14,-0.000678678,-1.03454E-05,1.61918E-07,0.670088396,2.195316852,0.000158915,-0.001134105,-0.062438396
name_7,B,15,-0.000333294,-8.87532E-06,6.53226E-08,0.173767207,1.361855401,1.82721E-05,-0.000645603,-0.030663064
name_7,C,1,-0.000655015,-5.71186E-06,2.31465E-07,0.285261213,1.684718352,0.000201115,-0.001265591,-0.060261377
name_7,C,2,-0.001048649,-1.36894E-05,3.68637E-07,0.816894375,2.556876541,0.000361745,-0.001712458,-0.096475737
name_7,C,3,-0.000507818,-5.8571E-06,9.30453E-08,0.703572119,2.378495491,0.000189117,-0.0008518,-0.046719268
name_7,C,4,-0.000798229,-9.47498E-06,2.50657E-07,0.498835398,2.011029658,0.00022495,-0.001398247,-0.073437078
name_7,C,5,-0.000837701,-7.27528E-06,3.07369E-07,0.472105324,1.972782527,0.000325739,-0.00150487,-0.077068516
name_7,C,6,-0.000765088,-7.96747E-06,2.15948E-07,0.690419501,2.416637681,0.000318145,-0.001298492,-0.07038814
name_7,C,7,-0.000653708,2.61111E-06,4.10156E-07,0.324991062,1.730817485,0.00053382,-0.001456403,-0.060141121
name_7,C,8,-0.000920937,-1.20025E-05,3.01238E-07,0.662475245,2.273809361,0.000268264,-0.001550925,-0.084726237
name_7,C,9,-0.000468289,-8.79304E-07,1.46578E-07,0.347703517,1.758142563,0.000263919,-0.000944431,-0.043082584
name_7,C,10,-0.000590464,1.28883E-06,2.95938E-07,0.292809415,1.700880174,0.00038536,-0.001280582,-0.054322684
name_7,C,11,-0.000574023,-8.30566E-07,2.35953E-07,0.275412603,1.679694683,0.000291743,-0.001193362,-0.052810091
name_7,C,12,-0.000784171,-2.5913E-06,3.58763E-07,0.392945955,1.84252389,0.000446985,-0.001520879,-0.072143716
name_7,C,13,-0.000679169,5.04166E-07,3.85312E-07,0.287629828,1.700864463,0.000483458,-0.001468485,-0.06248359
name_7,C,14,-0.000979772,-8.0509E-06,4.40725E-07,0.438948834,1.914492755,0.000392698,-0.001785251,-0.090139065
name_7,C,15,-0.000476813,-6.19703E-06,1.20142E-07,0.130560821,1.534451307,4.07905E-05,-0.000938567,-0.043866823
name_9,B,1,-0.002063021,-5.30818E-05,2.1092E-06,0.233482614,1.461002566,0.000146552,-0.003745271,-0.189797946
name_9,B,2,-0.002211063,-5.23869E-05,2.15437E-06,0.398000168,1.563306171,0.000182859,-0.003814842,-0.203417787
name_9,B,3,-0.001575844,-4.21231E-05,1.30249E-06,0.139250991,1.457656287,8.65599E-05,-0.002987922,-0.144977669
name_9,B,4,-0.002375361,-6.58044E-05,3.12729E-06,0.019843722,1.514695193,0.000156725,-0.004889552,-0.218533218
name_9,B,5,-0.001883665,-4.61106E-05,1.57826E-06,0.336992736,1.607191947,0.000247471,-0.003319107,-0.173297169
name_9,B,6,-0.002694987,-6.64687E-05,3.3227E-06,0.324050649,1.541669974,0.000254556,-0.004741492,-0.247938833
name_9,B,7,-0.002396094,-6.09782E-05,2.70278E-06,0.226406065,1.594965263,0.000307476,-0.004504085,-0.220440621
name_9,B,8,-0.004254056,-8.95802E-05,6.62029E-06,0.677250051,1.951236325,0.000836149,-0.006773123,-0.391373163
name_9,B,9,-0.004044417,-9.63583E-05,7.08162E-06,0.405274307,1.601744247,0.000429621,-0.006911812,-0.372086372
name_9,B,10,-0.002915136,-7.10547E-05,3.7518E-06,0.348498794,1.615599874,0.000384735,-0.005120186,-0.268192534
name_9,B,11,-0.002789513,-7.49516E-05,4.09479E-06,0.111454308,1.48225635,0.000230282,-0.005369767,-0.25663521
name_9,B,12,-0.000947463,-2.97728E-05,6.50516E-07,-0.330571484,1.659848687,4.40815E-05,-0.002328863,-0.087166609
name_9,B,13,-0.003880579,-0.000111486,8.95619E-06,-0.102238359,1.563275609,0.000363492,-0.008469595,-0.357013253
name_9,B,14,-0.002735497,-8.47569E-05,5.29074E-06,-0.186651829,1.472008278,3.59399E-05,-0.006153705,-0.251665709
name_9,B,15,-0.001665579,-3.90422E-05,1.15457E-06,0.440720222,1.701244747,0.000279288,-0.002834226,-0.153233229
name_9,A,1,-0.00029919,-2.34484E-05,6.11164E-07,-0.760688372,2.190048079,0.000530814,-0.001921421,-0.027525517
name_9,A,2,-0.000431262,-1.94583E-05,3.53938E-07,-0.023152552,1.394299109,0.000376886,-0.001199485,-0.039676088
name_9,A,3,-0.000566111,-2.15582E-05,3.85076E-07,-0.158962366,1.370463542,0.000204572,-0.001411665,-0.052082215
name_9,A,4,-0.002556735,-7.17815E-05,3.98914E-06,0.148874312,1.333363031,0.000162195,-0.004888934,-0.23521958
name_9,A,5,-0.00057156,-2.13972E-05,3.64481E-07,-0.748261662,2.189066567,1.61485E-05,-0.001882691,-0.052583557
name_9,A,6,-0.00042824,-1.40738E-05,1.48184E-07,-0.489738125,1.809132658,4.40106E-05,-0.00112487,-0.039398061
name_9,A,7,-0.001969672,-5.82825E-05,2.60543E-06,0.045353701,1.320912033,0.000125726,-0.003961494,-0.181209798
name_9,A,8,-0.000994668,-1.60965E-05,2.89171E-07,1.498499527,4.543214524,0.000645649,-0.001757517,-0.091509495
name_9,A,9,-0.000791094,-2.49023E-05,4.55743E-07,-0.288358316,1.596808576,1.3332E-05,-0.001895187,-0.072780654
name_9,A,10,-0.001871902,-5.2183E-05,2.04684E-06,0.108269013,1.36308307,4.55561E-05,-0.003604443,-0.172214941
name_9,A,11,-0.000756689,-2.66251E-05,5.41965E-07,-0.491938687,1.765448231,3.08453E-05,-0.002121872,-0.069615388
name_9,A,12,-0.000427903,-1.70913E-05,2.50583E-07,-0.135432162,1.371091169,0.000206364,-0.001105097,-0.039367095
name_9,A,13,-0.002844624,-7.8769E-05,4.57612E-06,0.104012303,1.419925148,7.88991E-05,-0.005633174,-0.261705419
name_9,A,14,-0.000596107,-2.49449E-05,5.16032E-07,-0.45050853,1.636549228,0.000200625,-0.001796454,-0.054841848
name_9,A,15,-0.001005621,-2.99958E-05,6.58985E-07,-0.091270678,1.452873778,1.75273E-05,-0.002190033,-0.092517158
name_9,C,1,8.9362E-05,8.91858E-06,1.55834E-07,-0.009635999,1.613617114,0.000670375,-0.00048758,0.008221302
name_9,C,2,0.001215455,3.0644E-05,7.89732E-07,-0.279675661,1.383210427,0.002239224,-4.75945E-05,0.111821851
name_9,C,3,0.000877031,1.7725E-05,3.53053E-07,-0.356426602,1.601767397,0.001606671,-3.61527E-05,0.080686818
name_9,C,4,0.000243947,-2.17897E-05,1.28604E-06,-0.717548385,2.503442708,0.00159163,-0.002300552,0.022443166
name_9,C,5,0.000702933,1.24375E-05,2.43233E-07,-0.180983075,1.581795554,0.001357812,-3.30873E-05,0.064669847
name_9,C,6,0.00012744,1.06578E-05,1.4527E-07,-0.197331663,1.445877117,0.000581133,-0.000441171,0.01172451
name_9,C,7,-0.000294089,-3.13406E-05,1.30179E-06,-0.956692378,2.595990058,0.000866262,-0.002852443,-0.027056218
name_9,C,8,-0.000458372,-9.34156E-06,7.46671E-08,0.79248182,3.682657191,0.000309528,-0.000911703,-0.042170234
name_9,C,9,-0.00074889,-1.56475E-05,1.90613E-07,0.8238334,2.804519053,0.000342444,-0.001280065,-0.068897896
name_9,C,10,-0.001241592,-4.90506E-05,1.97032E-06,-0.733869273,1.990752651,3.24395E-05,-0.003986108,-0.114226429
name_9,C,11,-0.000565537,-2.53546E-05,5.84876E-07,-0.968963496,2.392680949,7.18378E-05,-0.002214869,-0.052029442
name_9,C,12,0.000360734,-7.40039E-06,3.58397E-07,-0.358705857,1.941969618,0.001131618,-0.000836176,0.033187522
name_9,C,13,-0.001018469,-6.03499E-05,3.74069E-06,-0.914617742,2.333525142,0.000810175,-0.005111246,-0.093699193
name_9,C,14,-0.000831587,-3.40791E-05,9.8816E-07,-0.877277467,2.250929257,6.39825E-05,-0.002932391,-0.076506023
name_9,C,15,-0.000814303,-2.4146E-05,4.30308E-07,-0.472155281,2.15485573,0.000204706,-0.002160543,-0.074915846
name_10,B,1,3.03302E-05,-1.37099E-06,8.05094E-09,0.176226955,1.631739091,0.000169457,-0.000123966,0.002790376
name_10,B,2,-7.30177E-05,-2.9378E-06,7.65253E-09,-0.065315567,1.372074343,4.22961E-05,-0.000189367,-0.006717629
name_10,B,3,-4.78706E-05,-4.93179E-06,3.01686E-08,-0.867606923,2.455778509,0.000131156,-0.000432996,-0.004404092
name_10,B,4,3.52838E-05,-4.26384E-06,4.19272E-08,-0.89918032,2.81946257,0.000256536,-0.000475532,0.003246106
name_10,B,5,0.000330367,5.93929E-06,3.88733E-08,-0.68990577,2.203409473,0.00054934,-9.76032E-05,0.030393726
name_10,B,6,-7.81485E-05,-5.0275E-06,3.51161E-08,-1.661990877,4.537433394,6.29136E-05,-0.000644569,-0.007189664
name_10,B,7,0.000334016,4.83899E-07,7.30626E-08,-0.424136444,1.868236209,0.000662007,-0.000229839,0.030729435
name_10,B,8,0.000109291,-1.60259E-06,2.14097E-08,-0.534105797,2.026795801,0.000280274,-0.000211475,0.01005475
name_10,B,9,0.000184675,2.03799E-06,1.68589E-08,-0.303149546,1.713456799,0.000348847,-5.42951E-05,0.016990081
name_10,B,10,-0.000484198,-1.20996E-05,1.15726E-07,0.373307982,1.440360677,2.82233E-05,-0.000837788,-0.044546196
name_10,B,11,0.000277014,3.88155E-06,2.22181E-08,-1.690585023,4.907193597,0.000387886,-0.000202652,0.025485315
name_10,B,12,0.000262243,7.15432E-06,3.86524E-08,-0.083222992,1.395002938,0.000509732,-2.57184E-05,0.024126321
name_10,B,13,0.000680082,1.06376E-05,1.63813E-07,-0.66236316,2.186732531,0.001137959,-0.000168221,0.062567552
name_10,B,14,0.000258708,5.17953E-06,2.37107E-08,-0.739028112,2.158162849,0.000416878,-7.43569E-05,0.023801137
name_10,B,15,6.35164E-05,-1.36639E-06,9.27706E-09,-0.06264622,1.547002476,0.000196457,-0.000103479,0.005843513
name_10,C,1,0.000391639,8.13904E-06,5.32094E-08,-0.688017686,2.310085862,0.00078044,-8.58971E-05,0.036030776
name_10,C,2,0.000117178,-2.32738E-06,2.9279E-08,-0.038763584,1.552196593,0.000354982,-0.00020172,0.01078039
name_10,C,3,-0.000173148,-7.48836E-06,4.74312E-08,-0.461652185,1.799798698,8.23445E-05,-0.000581884,-0.015929641
name_10,C,4,3.85789E-05,-2.37368E-07,1.51268E-09,-0.781072483,2.516526876,8.17965E-05,-6.28071E-05,0.003549261
name_10,C,5,0.000237612,3.95006E-06,2.03212E-08,-0.635148715,2.148207231,0.000402146,-5.99626E-05,0.021860321
name_10,C,6,9.28341E-05,-1.88332E-06,1.96832E-08,-0.253161126,1.633125459,0.000271918,-0.000142103,0.008540733
name_10,C,7,0.000116609,-8.6721E-07,1.80723E-08,-0.534615728,2.033962557,0.000273354,-0.000179444,0.010728002
name_10,C,8,0.000183372,1.1884E-06,1.57566E-08,-0.347173131,1.951016707,0.000345032,-8.19317E-05,0.016870231
name_10,C,9,3.64084E-06,-3.40406E-06,1.87154E-08,-0.268853279,1.687643524,0.000179754,-0.000229717,0.000334957
name_10,C,10,0.000249427,1.319E-06,3.28516E-08,-0.335042049,1.813670184,0.00047844,-0.000117956,0.022947239
name_10,C,11,0.000189793,2.69409E-07,2.09936E-08,-0.4539221,2.116349343,0.000369784,-0.000152796,0.017460973
name_10,C,12,-1.39712E-05,-2.82724E-06,1.11936E-08,-0.773564098,2.450885288,0.000102251,-0.00025885,-0.001285349
name_10,C,13,0.000403598,4.51294E-06,5.53538E-08,-0.911577391,2.898997395,0.000657889,-0.000199835,0.037131042
name_10,C,14,-0.000264443,-1.11042E-05,1.03107E-07,-0.343382721,1.566480752,0.000115194,-0.000784816,-0.024328796
name_10,C,15,0.000230092,2.42534E-06,2.08273E-08,-0.645929108,2.363582216,0.000397883,-0.000114794,0.021168493
name_10,A,1,3.75823E-05,2.08027E-05,7.2177E-07,0.83885765,2.514435399,0.001917642,-0.000890777,0.003457572
name_10,A,2,0.000495071,1.72897E-05,2.29483E-07,0.428632793,1.568794473,0.00125459,-1.16333E-05,0.045546574
name_10,A,3,-0.000660921,-1.74546E-05,2.1813E-07,-0.043170913,1.934906469,9.009E-05,-0.001534436,-0.060804722
name_10,A,4,0.00047331,9.28938E-06,9.36022E-08,-0.379332726,1.779445622,0.000851868,-8.77527E-05,0.04354456
name_10,A,5,8.92143E-05,-6.0697E-06,1.09958E-07,-0.929408223,2.968263548,0.000450361,-0.000766444,0.008207715
name_10,A,6,0.000143657,-1.77989E-06,5.23255E-08,-0.880898226,3.162987315,0.000405697,-0.000502076,0.013216452
name_10,A,7,0.000131413,4.88099E-06,3.44788E-08,0.319630036,1.587065008,0.000427392,-9.84469E-05,0.012089975
name_10,A,8,-0.000619546,-1.20385E-05,1.22497E-07,0.967681434,2.55064068,0.000187416,-0.00101827,-0.056998247
name_10,A,9,-0.000333069,-9.12104E-06,5.9419E-08,-0.075142338,1.794383121,4.86033E-05,-0.00077603,-0.030642388
name_10,A,10,0.000185627,4.22446E-06,4.06348E-08,0.221196179,1.50457102,0.000491724,-0.000108026,0.017077646
name_10,A,11,0.000263771,5.02919E-06,4.69707E-08,0.090329071,1.444549492,0.00057521,-1.20015E-05,0.024266896
name_10,A,12,-0.000142164,-4.07709E-06,1.79272E-08,-1.3659145,4.692030363,8.05E-05,-0.000558005,-0.013079047
name_10,A,13,0.000492458,1.33686E-05,1.6573E-07,-0.009409593,1.384146768,0.001046775,-2.90465E-05,0.045306169
name_10,A,14,0.000357422,7.73929E-06,6.98188E-08,-0.069702474,1.496533733,0.000717748,-8.41859E-06,0.032882825
name_10,A,15,-0.000164354,-3.53803E-06,1.45688E-08,-0.730227235,4.529539114,8.53168E-05,-0.000538506,-0.015120577
name_11,C,1,-0.00080655,-4.39226E-05,1.90855E-06,-0.16593647,1.434018982,0.000970722,-0.002734208,-0.074202578
name_11,C,2,,,,,,,,
name_11,C,3,1.83854E-05,-1.38833E-05,3.18319E-07,-0.183465178,1.575995196,0.00076135,-0.000828164,0.001691459
name_11,C,4,-0.000759741,-3.24266E-05,8.82748E-07,-0.436819043,1.580597691,0.000273365,-0.002264038,-0.069896138
name_11,C,5,-0.000655616,-2.25713E-05,3.8814E-07,-0.390971066,1.54926189,1.50349E-06,-0.001636593,-0.060316629
name_11,C,6,-0.000290367,-1.09153E-05,9.55753E-08,-0.346590959,1.438093581,4.46596E-05,-0.00074912,-0.0267138
name_11,C,7,-0.001127278,-3.05052E-05,6.77416E-07,0.077772956,1.493075646,0.000121909,-0.002194393,-0.103709583
name_11,C,8,-0.000755576,-2.46715E-05,4.56335E-07,-0.248850173,1.460687266,1.76144E-05,-0.001760417,-0.069513004
name_11,C,9,-0.000490901,-1.69146E-05,2.22199E-07,-0.238211194,1.377416626,4.04506E-05,-0.001156205,-0.04516291
name_11,C,10,-0.001067625,-2.99134E-05,6.46051E-07,-0.02629979,1.524192789,0.000110762,-0.002193949,-0.098221483
name_11,C,11,-0.000584326,-1.84806E-05,2.52207E-07,-0.27474415,1.529497658,2.54134E-05,-0.001356999,-0.053757964
name_11,C,12,-0.000122293,-1.34964E-05,2.22414E-07,-0.252808677,1.580360902,0.000479856,-0.000829834,-0.011250942
name_11,C,13,-0.000502893,-1.90451E-05,2.87261E-07,-0.430133959,1.573892112,6.74924E-05,-0.001373581,-0.04626614
name_11,C,14,-0.000433346,-2.02732E-05,3.59826E-07,-0.503687681,1.670953607,0.000218719,-0.001437733,-0.039867844
name_11,C,15,-0.000417597,-1.87141E-05,3.00708E-07,-0.434904812,1.59863695,0.00019558,-0.001306665,-0.038418947
name_11,A,1,-0.004280983,-0.000119671,1.22314E-05,0.063183953,1.336819857,0.000232629,-0.00881667,-0.393850451
name_11,A,2,,,,,,,,
name_11,A,3,0.00027275,8.20872E-06,5.00842E-08,0.062674083,1.363612451,0.000575182,-3.06897E-06,0.025092961
name_11,A,4,-0.000446645,-9.0911E-06,8.80792E-08,0.364464977,1.622258399,1.7082E-05,-0.00080435,-0.04109136
name_11,A,5,-0.00056597,-5.66072E-06,1.19869E-07,0.730928334,2.478335923,0.000265239,-0.000954703,-0.052069216
name_11,A,6,-0.000161975,3.79667E-06,7.04827E-08,0.340573661,1.805913137,0.000362746,-0.000496905,-0.014901702
name_11,A,7,-0.000912195,-1.42632E-05,2.82952E-07,0.773196454,2.365632525,0.000269069,-0.001484263,-0.083921943
name_11,A,8,-0.00037705,-3.64861E-06,5.41023E-08,0.689040892,2.384013186,0.000167456,-0.000641222,-0.034688566
name_11,A,9,-0.000109949,5.62427E-06,8.62554E-08,0.272756758,1.731903374,0.000430439,-0.00048968,-0.010115351
name_11,A,10,-0.000706056,-1.40296E-05,1.73121E-07,0.773116761,2.187262219,0.000186964,-0.001121112,-0.064957115
name_11,A,11,-0.000223398,-1.1585E-06,2.20715E-08,0.690636708,2.582722085,0.000154926,-0.000398752,-0.020552639
name_11,A,12,0.000155385,6.89162E-06,4.06593E-08,0.50401235,1.613454874,0.000482071,-5.68303E-05,0.01429541
name_11,A,13,-0.000569679,-1.00614E-05,1.0213E-07,1.009016396,2.649463968,0.000184621,-0.000860885,-0.052410452
name_11,A,14,-1.46623E-05,8.40587E-07,1.81966E-09,0.145303268,1.580041067,5.44152E-05,-7.17195E-05,-0.001348932
name_11,A,15,-0.000103466,-1.58901E-06,4.52971E-09,0.337765339,1.73334783,1.28514E-05,-0.000187597,-0.009518874
name_11,B,1,-0.000162912,-5.35099E-06,3.77922E-08,-1.79111201,5.621004524,9.42881E-05,-0.000816483,-0.014987883
name_11,B,2,-0.002417411,-4.38012E-05,2.81567E-06,0.244115381,4.185093698,0.002308722,-0.006605696,-0.222401812
name_11,B,3,-0.000518493,-7.53422E-06,1.19898E-07,0.688317698,4.129879652,0.000512385,-0.001303459,-0.047701346
name_11,B,4,0.000373758,8.00664E-06,1.71963E-07,0.198206001,1.520512644,0.001002022,-0.000200099,0.034385698
name_11,B,5,-0.000351903,-4.45698E-06,1.00367E-07,0.272322399,3.19732324,0.00053006,-0.001084237,-0.032375097
name_11,B,6,-0.000241975,6.16732E-07,5.71926E-08,0.267722808,2.338953319,0.000373816,-0.000586449,-0.022261742
name_11,B,7,-0.000393999,1.45225E-07,1.41847E-07,0.436306558,2.768328536,0.00066464,-0.000930495,-0.036247863
name_11,B,8,0.000177949,3.38124E-06,5.63662E-08,0.167025733,1.649264309,0.000540993,-0.000273039,0.016371285
name_11,B,9,0.000175176,7.12076E-06,7.75828E-08,0.078205613,1.581965705,0.000588245,-0.000215966,0.016116216
name_11,B,10,-0.000660734,-8.319E-06,1.49864E-07,1.484633729,5.044537612,0.000610507,-0.001253645,-0.060787524
name_11,B,11,-0.000429919,-7.13967E-06,8.20689E-08,0.62866898,4.368206111,0.000431251,-0.001089068,-0.039552582
name_11,B,12,-6.62041E-05,-2.48406E-07,2.16713E-08,-0.281702528,2.295048679,0.000185707,-0.000454596,-0.006090777
name_11,B,13,-0.000196548,-2.47686E-06,3.26121E-08,-0.010719964,3.038307701,0.000255303,-0.000659092,-0.018082452
name_11,B,14,0.000215879,-5.09032E-07,6.4442E-08,-0.437534983,2.237135365,0.000540492,-0.000401383,0.019860907
name_11,B,15,0.000303153,1.09959E-06,1.09303E-07,-0.235191761,2.013221703,0.000753862,-0.000467496,0.027890086
name_12,C,1,-0.0002195,-4.67757E-06,1.77441E-08,0.670867491,1.95135676,4.85783E-05,-0.00034761,-0.020194015
name_12,C,2,-0.000627324,-2.5996E-05,5.91297E-07,-0.960010717,2.412651901,0.000119814,-0.002307975,-0.057713764
name_12,C,3,0.000402415,-1.11718E-06,1.95645E-07,-0.303990309,1.904566508,0.000979099,-0.000550221,0.037022196
name_12,C,4,0.000655145,3.78343E-06,2.19139E-07,-0.303011005,1.800050145,0.001256844,-0.000274188,0.060273337
name_12,C,5,0.000487938,3.54009E-06,1.06657E-07,-0.512405424,2.094471712,0.000880459,-0.000241755,0.044890271
name_12,C,6,-0.000352786,-1.04392E-05,8.00123E-08,-0.462717552,2.195488251,7.14898E-05,-0.000966376,-0.032456356
name_12,C,7,-0.000173771,-1.59315E-05,3.04382E-07,-0.852502072,2.391277882,0.000399634,-0.001380909,-0.015986911
name_12,C,8,-0.000282702,-1.15523E-05,1.11809E-07,-0.871244679,2.352021107,8.14629E-06,-0.001044717,-0.026008624
name_12,C,9,-0.000111245,-9.21691E-06,9.48091E-08,-0.628488074,2.002332813,0.000231957,-0.00071215,-0.010234515
name_12,C,10,0.000767026,4.73475E-06,2.40972E-07,-0.661634176,2.662730019,0.00136865,-0.000473637,0.070566382
name_12,C,11,-0.001697284,-2.83451E-05,8.29672E-07,1.324751132,3.381794123,0.000718684,-0.002379034,-0.156150105
name_12,C,12,0.000439593,5.00632E-06,6.81375E-08,-0.727288968,2.491553139,0.000739475,-0.00016897,0.040442528
name_12,C,13,0.000866659,2.05628E-06,4.33622E-07,-0.302823948,1.849920841,0.001719049,-0.000515026,0.079732599
name_12,C,14,-0.000151626,-1.49884E-05,2.76007E-07,-0.83440189,2.368546344,0.000401589,-0.001291263,-0.013949633
name_12,C,15,-0.000430323,-1.72608E-05,2.45949E-07,-0.794670748,2.153763987,1.27279E-05,-0.001483314,-0.03958976
name_12,B,1,-0.000125641,1.06641E-06,4.68014E-08,0.704290899,3.096081203,0.000481584,-0.000400787,-0.011558939
name_12,B,2,-0.000477211,-1.23612E-05,1.3262E-07,0.079093076,1.413265916,7.14669E-06,-0.000959624,-0.043903375
name_12,B,3,-0.000649749,-1.15138E-05,1.26902E-07,1.153000906,2.900699627,0.000227041,-0.000923106,-0.059776883
name_12,B,4,-0.000538987,-1.4306E-05,1.5136E-07,0.187599357,1.435730487,1.57141E-05,-0.001027412,-0.049586803
name_12,B,5,-0.000588075,-1.46946E-05,1.59202E-07,0.302046121,1.566981253,7.02409E-05,-0.001097295,-0.054102906
name_12,B,6,-0.000534265,-9.95344E-06,1.03707E-07,0.654560104,2.025118138,0.00010972,-0.000886115,-0.049152349
name_12,B,7,-0.001106013,-3.06653E-05,6.77968E-07,0.012160127,1.527317612,9.62341E-05,-0.002299583,-0.101753163
name_12,B,8,-0.001046479,-2.07145E-05,3.93865E-07,0.705767144,2.00016416,0.000202648,-0.00168444,-0.096276075
name_12,B,9,-0.000423481,-1.2016E-05,1.04005E-07,-0.051316442,1.545767957,3.26856E-05,-0.000920326,-0.038960234
name_12,B,10,-0.000503426,-3.39048E-05,1.20409E-06,-0.793533886,2.223316904,0.000628541,-0.002828082,-0.046315229
name_12,B,11,-5.1591E-05,6.28154E-06,9.71209E-08,0.966985004,3.014065404,0.000746865,-0.000389105,-0.004746368
name_12,B,12,-0.000304603,8.05745E-07,8.48603E-08,0.131287734,1.563362358,0.000163171,-0.000695462,-0.028023448
name_12,B,13,-0.000462284,-3.19103E-05,1.09598E-06,-0.905398688,2.447123176,0.000573133,-0.002808682,-0.042530107
name_12,B,14,-0.000179581,-1.07277E-05,1.29162E-07,-1.261695607,3.197859099,0.000116676,-0.001093224,-0.016521481
name_12,B,15,-0.000500055,-1.51116E-05,1.67287E-07,-0.422492989,1.956363921,9.96072E-05,-0.001284259,-0.04600509
name_12,A,1,0.000895272,5.00292E-05,2.42152E-06,0.750481345,2.022152023,0.003857897,-0.000656101,0.082365039
name_12,A,2,0.00453058,0.000119136,1.05961E-05,-0.151436614,1.464408182,0.008555489,-0.000556508,0.416813367
name_12,A,3,0.003272024,5.31853E-05,3.62547E-06,-0.768730359,2.277501202,0.005342647,-0.000753287,0.301026201
name_12,A,4,0.001142332,5.21616E-05,2.43051E-06,0.883961156,2.238513919,0.004377348,-0.000211845,0.105094516
name_12,A,5,0.000478863,-1.48298E-05,1.05196E-06,-0.537420144,2.267361093,0.001754225,-0.001784972,0.044055396
name_12,A,6,-0.002293358,-0.00015233,2.4222E-05,-0.651664505,1.903388259,0.003019563,-0.011223409,-0.210988961
name_12,A,7,0.001108423,-2.64609E-05,4.20469E-06,-0.420224605,2.106019024,0.003754585,-0.003232283,0.101974943
name_12,A,8,-0.001205085,-0.000219756,7.06058E-05,-0.693352688,2.19592564,0.008531812,-0.018114979,-0.110867823
name_12,A,9,0.002418437,8.24255E-05,5.1514E-06,0.451417047,1.65093699,0.006178212,-9.35687E-05,0.2224962
name_12,A,10,,,,,,,,
name_12,A,11,0.002954173,0.000127859,1.44668E-05,0.392695207,1.38225186,0.008414975,-0.001076151,0.271783877
name_12,A,12,-0.000665766,-3.94186E-05,1.54188E-06,-0.733978776,2.015843204,0.000601372,-0.0030455,-0.061250509
name_12,A,13,,,,,,,,
name_12,A,14,0.002939396,8.72439E-05,5.55161E-06,0.146384913,1.493298448,0.006328093,-0.000217764,0.270424408
name_12,A,15,0.002465838,6.87328E-05,3.42902E-06,-0.00881576,1.482502198,0.004951321,-0.000237555,0.226857078
name_13,A,1,-0.001406335,-3.11295E-05,7.32283E-07,0.606745431,2.068436567,0.000359937,-0.002524953,-0.129382845
name_13,A,2,-0.000382315,-7.80577E-06,4.85591E-08,0.864906011,2.49175861,0.000126908,-0.000633215,-0.035173021
name_13,A,3,-0.000332589,-5.46558E-06,3.16281E-08,1.375321823,3.548609562,0.000151261,-0.000462253,-0.030598158
name_13,A,4,-0.000424044,-8.49521E-06,5.85535E-08,0.914254813,2.544429767,0.00013764,-0.000695573,-0.039012068
name_13,A,5,-0.000551932,-1.26689E-05,1.1838E-07,0.484134015,2.0110104,0.000139293,-0.001021255,-0.050777703
name_13,A,6,-0.000770954,-1.78188E-05,2.33833E-07,0.468270596,1.970665115,0.000191719,-0.001425749,-0.070927791
name_13,A,7,-0.000658809,-1.37335E-05,1.47169E-07,0.799481783,2.456270787,0.000218418,-0.001131472,-0.0606104
name_13,A,8,-0.000928781,-2.29768E-05,3.79473E-07,0.238199082,1.856940818,0.000210701,-0.001868091,-0.085447877
name_13,A,9,-0.000918328,-2.21423E-05,3.55818E-07,0.33735102,1.840938418,0.000192216,-0.001776194,-0.08448616
name_13,A,10,-0.000769126,-1.61742E-05,2.02733E-07,0.760178568,2.429197387,0.000247825,-0.001374568,-0.070759628
name_13,A,11,-0.00071641,-1.5571E-05,1.85208E-07,0.66392898,2.136895509,0.000192121,-0.001240417,-0.065909766
name_13,A,12,-0.0005385,-1.12504E-05,1.00568E-07,0.765613456,2.164086308,0.000128075,-0.000880869,-0.049542011
name_13,A,13,-0.000495705,-1.0691E-05,8.68989E-08,0.659392358,2.478659883,0.000174928,-0.000939283,-0.045604892
name_13,A,14,-0.000450368,-8.94669E-06,6.57764E-08,0.922906448,2.507063215,0.000136967,-0.000743779,-0.041433892
name_13,A,15,-0.000457318,-1.05644E-05,8.20456E-08,0.386695254,2.22439695,0.000131156,-0.000948961,-0.042073268
name_13,B,1,-0.000270715,-1.16642E-05,1.14914E-07,-0.607692802,1.755906034,6.41633E-05,-0.000861827,-0.024905735
name_13,B,2,-0.000660582,-2.15589E-05,3.47499E-07,-0.266282808,1.480004995,7.51524E-06,-0.001554907,-0.060773535
name_13,B,3,-0.000698809,-2.58501E-05,5.218E-07,-0.462233326,1.645823095,5.95461E-05,-0.001956998,-0.064290471
name_13,B,4,-0.000649893,-2.05534E-05,3.14222E-07,-0.202626616,1.435528245,5.06653E-06,-0.001456965,-0.059790187
name_13,B,5,-0.000516012,-1.92374E-05,2.902E-07,-0.494833695,1.664571625,3.18803E-05,-0.00145284,-0.047473134
name_13,B,6,-0.000678701,-2.70749E-05,5.93227E-07,-0.51251446,1.666934994,0.000115549,-0.002010233,-0.062440471
name_13,B,7,-0.000820934,-2.80861E-05,6.03172E-07,-0.271936182,1.436806981,4.95278E-05,-0.001964514,-0.075525915
name_13,B,8,-0.000684874,-2.55588E-05,5.12616E-07,-0.463500763,1.620014129,5.50645E-05,-0.001902689,-0.063008435
name_13,B,9,-0.000574695,-2.33862E-05,4.48311E-07,-0.643865254,1.8553074,6.92407E-05,-0.001842031,-0.052871956
name_13,B,10,-0.000863453,-3.10882E-05,7.48959E-07,-0.378333955,1.527038036,6.40648E-05,-0.002238624,-0.079437699
name_13,B,11,-0.000546489,-2.02911E-05,3.22705E-07,-0.450034395,1.594479524,4.05883E-05,-0.001488288,-0.05027697
name_13,B,12,-0.000413072,-1.62993E-05,2.1403E-07,-0.594967114,1.797535276,4.20333E-05,-0.001274733,-0.038002612
name_13,B,13,-0.000681233,-2.19527E-05,3.58004E-07,-0.288931401,1.515259171,2.83255E-05,-0.001603757,-0.062673442
name_13,B,14,-0.000524417,-1.48881E-05,1.60186E-07,-0.060196936,1.523007569,6.8584E-05,-0.001090167,-0.048246336
name_13,B,15,-0.000464816,-1.34195E-05,1.30692E-07,-0.081209282,1.491620931,4.61122E-05,-0.000974112,-0.042763103
name_13,C,1,-0.001269055,-2.28262E-05,4.90331E-07,1.117391076,2.820566902,0.000437744,-0.001870712,-0.116753044
name_13,C,2,0.000158138,2.76052E-06,5.8863E-08,0.016359491,1.811108529,0.000517433,-0.000377538,0.014548706
name_13,C,3,0.000529629,1.13148E-05,2.33006E-07,0.107460571,1.458845472,0.001227552,-0.00010865,0.048725882
name_13,C,4,-4.89322E-05,-3.5751E-06,3.33558E-08,-1.819508067,5.787836447,0.000118263,-0.000679815,-0.004501763
name_13,C,5,0.000403809,9.69213E-06,1.46638E-07,0.095653347,1.474335177,0.000956315,-0.000112113,0.037150396
name_13,C,6,0.000364569,8.20937E-06,1.20167E-07,0.116938841,1.467261094,0.000867915,-9.50557E-05,0.033540363
name_13,C,7,0.000360535,6.16517E-06,9.87452E-08,0.051979171,1.462869184,0.000804516,-0.00016333,0.033169219
name_13,C,8,0.000260042,7.04753E-06,7.16576E-08,0.12903018,1.490955313,0.000652662,-9.6943E-05,0.023923875
name_13,C,9,6.27322E-05,1.43599E-06,2.33949E-08,-0.06544267,1.915842486,0.000287917,-0.000294858,0.00577136
name_13,C,10,0.000243237,2.80659E-06,8.62494E-08,-0.063422381,1.874486863,0.000663612,-0.000432599,0.022377796
name_13,C,11,3.00878E-05,2.91141E-06,1.91498E-08,0.029209582,1.573855812,0.000234509,-0.000167911,0.00276808
name_13,C,12,8.47576E-05,3.48648E-06,2.37044E-08,0.12885429,1.577127817,0.000317363,-0.000126984,0.007797701
name_13,C,13,-3.33982E-05,8.03309E-07,1.59303E-08,-0.050189964,1.794463786,0.000162639,-0.000322862,-0.003072638
name_13,C,14,-0.00034625,-8.25834E-06,5.32493E-08,-0.023535187,3.020585174,0.000175708,-0.000866657,-0.031855002
name_13,C,15,-0.000577409,-1.0226E-05,9.79733E-08,1.299452828,3.467271903,0.000276294,-0.00092299,-0.053121669
name_14,A,1,-0.000513218,-1.99345E-05,3.17079E-07,-0.499369129,1.699353696,8.12775E-05,-0.00152848,-0.047216037
name_14,A,2,-0.001714569,-5.40126E-05,2.14584E-06,-0.337124612,1.637879353,0.000158464,-0.004148954,-0.157740308
name_14,A,3,-0.000750603,-8.26647E-06,1.9476E-07,0.731764914,2.542154183,0.000267519,-0.001268391,-0.069055508
name_14,A,4,-0.000316285,-3.80496E-06,2.97513E-08,1.170529581,3.391604316,0.000131817,-0.00050044,-0.029098241
name_14,A,5,-0.001681129,-4.73948E-05,1.65429E-06,0.033131844,1.404313796,5.48226E-05,-0.003327386,-0.154663824
name_14,A,6,-0.001004026,-1.98502E-05,3.36584E-07,0.866574907,2.262921664,0.000248244,-0.001503558,-0.092370419
name_14,A,7,3.53228E-06,1.96069E-05,6.84804E-07,0.826416469,2.526831448,0.001838997,-0.000915292,0.00032497
name_14,A,8,-0.001131066,-2.51619E-05,4.98561E-07,0.571637602,1.768154817,0.000150463,-0.001821416,-0.104058097
name_14,A,9,-0.000708691,-1.74381E-05,2.19923E-07,0.285510846,1.764790864,0.000135146,-0.001363109,-0.065199548
name_14,A,10,-2.47466E-07,2.22795E-05,8.7329E-07,0.793776738,2.459804259,0.002046372,-0.001043135,-2.27669E-05
name_14,A,11,-0.000637941,-1.98582E-05,2.92431E-07,-0.519594962,2.049118972,0.000101425,-0.001733808,-0.058690595
name_14,A,12,-0.000779995,-1.80148E-05,2.42709E-07,0.487380046,1.804989918,0.000127077,-0.001397921,-0.071759564
name_14,A,13,-0.000286265,8.82911E-07,7.96692E-08,0.168952885,1.613060676,0.000209647,-0.000661606,-0.026336392
name_14,A,14,-0.000956437,-3.48421E-05,9.42911E-07,-0.489964855,1.677264117,4.06483E-05,-0.002653091,-0.087992239
name_14,A,15,-0.000671353,-2.78283E-05,6.38415E-07,-0.52297192,1.686441092,0.00016275,-0.002061743,-0.061764511
name_14,C,1,0.000312874,2.3239E-06,4.0871E-08,-0.569137133,2.320176928,0.000558195,-0.000164245,0.028784415
name_14,C,2,-0.000836408,-2.62365E-05,5.53077E-07,0.022221567,1.275232681,0.000113481,-0.001754149,-0.076949499
name_14,C,3,-0.000205521,-9.16589E-06,7.63415E-08,-0.176351215,1.363131351,0.000139603,-0.000584305,-0.018907899
name_14,C,4,-0.000174435,-5.43496E-06,2.19279E-08,-0.247604346,1.487939697,3.92708E-05,-0.00038997,-0.016048011
name_14,C,5,0.000325572,2.13014E-06,5.8427E-08,-0.034375818,1.570126048,0.000665149,-4.71072E-05,0.029952607
name_14,C,6,-0.000147389,-5.70041E-06,2.64321E-08,-0.333192334,1.407035453,2.99696E-05,-0.000383756,-0.013559799
name_14,C,7,-0.000108473,-4.78591E-06,1.98856E-08,-0.408360271,1.475701273,4.57448E-05,-0.000321442,-0.009979541
name_14,C,8,-0.000121658,-5.42629E-06,2.82409E-08,-0.255862811,1.410766931,8.16923E-05,-0.000369933,-0.011192492
name_14,C,9,-0.00025062,-7.02413E-06,3.80867E-08,0.0827911,1.321101673,1.19144E-05,-0.000489972,-0.02305707
name_14,C,10,-0.000349018,-9.18558E-06,7.15914E-08,0.177286252,1.349824121,1.20619E-05,-0.000676208,-0.032109678
name_14,C,11,-0.000215056,-8.21813E-06,5.86359E-08,-0.073054757,1.318514629,9.57705E-05,-0.000531338,-0.019785123
name_14,C,12,-0.000106985,-7.70661E-06,6.3641E-08,-0.504668253,1.717726546,0.000185137,-0.000517923,-0.009842579
name_14,C,13,-0.000302568,-8.95232E-06,6.96164E-08,0.084733254,1.307663233,4.70109E-05,-0.000635502,-0.027836291
name_14,C,14,-6.56149E-05,-5.6041E-06,3.87395E-08,-0.013006779,1.466175035,0.000208311,-0.000335152,-0.006036569
name_14,C,15,0.000555445,6.90817E-06,8.75063E-08,-1.552155268,4.40468401,0.000830166,-0.000325972,0.051100955
name_14,B,1,4.00391E-05,-1.5708E-06,1.41676E-08,-0.57776133,2.569398812,0.000195936,-0.000234311,0.003683596
name_14,B,2,-0.000340052,-3.58277E-05,1.54142E-06,-0.470323895,1.787479938,0.001137655,-0.002441312,-0.031284778
name_14,B,3,-0.00012499,-1.86502E-05,4.51167E-07,-0.473319346,1.85363877,0.000679962,-0.001334537,-0.011499096
name_14,B,4,-0.000189902,-1.48719E-05,2.44862E-07,-0.682870566,2.027083976,0.00034699,-0.00114003,-0.017470988
name_14,B,5,0.000129011,-1.1434E-05,3.17271E-07,-0.632352461,2.288485479,0.000794862,-0.001095207,0.011869046
name_14,B,6,-0.000100255,-1.19175E-05,1.79911E-07,-0.685668344,2.115993953,0.000370184,-0.000939271,-0.009223465
name_14,B,7,-0.0001696,-1.28757E-05,1.81137E-07,-0.628308322,1.917313985,0.000299473,-0.000937204,-0.015603191
name_14,B,8,-0.000104006,-1.54319E-05,3.20283E-07,-0.673052642,2.11626457,0.000534561,-0.001211455,-0.009568553
name_14,B,9,-0.000188485,-1.11922E-05,1.22643E-07,-0.569693237,1.793540843,0.000195767,-0.000797982,-0.017340596
name_14,B,10,-0.000300273,-2.02873E-05,4.25706E-07,-0.471636561,1.701167872,0.000454455,-0.001367387,-0.027625104
name_14,B,11,-0.000288482,-1.24415E-05,1.30253E-07,-0.493462377,1.63437969,9.63266E-05,-0.000885747,-0.026540368
name_14,B,12,0.000123725,-7.13376E-06,1.40055E-07,-0.466183904,2.002427863,0.000583482,-0.00062598,0.011382675
name_14,B,13,-0.000432663,-2.14223E-05,4.13994E-07,-0.467633803,1.61600105,0.000282138,-0.001463125,-0.039805027
name_14,B,14,-0.000133076,-1.0054E-05,1.10218E-07,-0.678956176,2.014775381,0.000224661,-0.00076344,-0.012242964
name_14,B,15,-0.00016073,-7.81197E-06,5.46348E-08,-0.684001169,1.925830317,7.43967E-05,-0.00060095,-0.0147872
name_15,B,1,0.000318962,5.56946E-06,2.99807E-08,-1.222901121,3.087821215,0.000444186,-0.000119911,0.029344525
name_15,B,2,-0.000529227,-8.74106E-06,9.07024E-08,0.875602761,2.341885375,9.44068E-05,-0.000838828,-0.048688893
name_15,B,3,-0.000503535,-1.19122E-05,1.14542E-07,0.386252678,1.523974726,2.05054E-05,-0.000877488,-0.046325206
name_15,B,4,-0.000490218,-1.05034E-05,1.03679E-07,0.410194371,1.630842776,2.82219E-05,-0.000866241,-0.045100013
name_15,B,5,-0.000958371,-1.89115E-05,3.15785E-07,0.796180243,2.168786489,0.000225899,-0.001498058,-0.088170108
name_15,B,6,-0.00099879,-2.56793E-05,4.82336E-07,0.207511667,1.540753323,8.10277E-05,-0.001856338,-0.091888709
name_15,B,7,-0.000786984,-1.94831E-05,3.01674E-07,0.291090048,1.455455277,2.63587E-05,-0.001422096,-0.072402483
name_15,B,8,-0.001026707,-2.32297E-05,4.17909E-07,0.526495931,1.766689038,0.000162058,-0.001697811,-0.094457071
name_15,B,9,-0.000597649,-1.7705E-05,2.29314E-07,-0.111942937,1.457512315,1.93005E-05,-0.001270686,-0.054983738
name_15,B,10,-0.000767957,-2.06918E-05,3.27467E-07,0.159257688,1.366255243,1.56418E-05,-0.001447835,-0.070652009
name_15,B,11,-0.001119988,-2.60357E-05,5.15757E-07,0.463477293,1.729004231,0.000213523,-0.001888707,-0.103038916
name_15,B,12,-0.000540376,-1.5001E-05,1.64502E-07,0.037079323,1.445805211,5.69956E-05,-0.001064065,-0.049714602
name_15,B,13,-0.001065406,-2.36786E-05,4.4467E-07,0.555156252,1.792087447,0.000189182,-0.001752638,-0.098017358
name_15,B,14,-0.000848209,-1.89431E-05,2.84145E-07,0.542967545,1.780643138,0.000156944,-0.001400731,-0.078035222
name_15,B,15,-0.000277319,-9.22842E-06,6.45777E-08,-0.220441679,1.415205407,1.52196E-05,-0.000648929,-0.025513323
name_15,A,1,0.000928323,2.09147E-05,3.48087E-07,-0.53083198,1.680303754,0.001512736,-9.19557E-05,0.085405731
name_15,A,2,-0.000753063,-1.89211E-05,2.73469E-07,0.243406889,1.509831858,9.44468E-05,-0.001383607,-0.069281788
name_15,A,3,0.000291883,-7.21605E-06,2.64206E-07,-0.2491696,1.758768121,0.000970222,-0.000618931,0.026853265
name_15,A,4,-0.000118328,-7.05717E-06,5.10309E-08,-0.624656267,1.762728221,0.000122232,-0.000500666,-0.010886212
name_15,A,5,-0.0007811,-2.26333E-05,3.71534E-07,-0.133128025,1.543365777,0.000118333,-0.001660992,-0.071861243
name_15,A,6,0.000281495,-4.37965E-06,1.76216E-07,-0.258023295,1.837567134,0.000840123,-0.00051345,0.025897542
name_15,A,7,-4.64516E-05,-1.18283E-05,2.07109E-07,-0.530456661,1.911674632,0.00049698,-0.000838082,-0.004273545
name_15,A,8,-0.000250952,-1.31919E-05,1.65212E-07,-0.712401251,1.885642434,0.00015258,-0.000971432,-0.023087622
name_15,A,9,7.23284E-05,-6.76707E-06,1.12163E-07,-0.498648702,2.073440681,0.000490574,-0.000562938,0.006654209
name_15,A,10,0.000149378,-5.55921E-06,1.17654E-07,-0.270128084,1.829241561,0.000606638,-0.000443923,0.013742761
name_15,A,11,-0.000513396,-1.71712E-05,2.24441E-07,-0.501505754,1.729568096,0.000118519,-0.001308123,-0.047232387
name_15,A,12,0.000192216,-1.857E-06,6.07164E-08,-0.096294185,1.677978715,0.000535613,-0.000230865,0.017683904
name_15,A,13,-0.000641148,-1.50162E-05,1.6896E-07,0.430918206,1.868635989,0.00018923,-0.001122313,-0.058985589
name_15,A,14,-0.000601493,-1.1142E-05,1.10975E-07,1.155482738,3.099834107,0.000269875,-0.000885898,-0.055337377
name_15,A,15,-2.71155E-05,-2.77495E-06,1.14847E-08,-0.830373347,2.354534061,9.39866E-05,-0.000236811,-0.002494627
name_15,C,1,3.92965E-05,-1.79098E-07,1.4575E-09,0.040374868,1.698520913,9.56301E-05,-3.36888E-05,0.003615279
name_15,C,2,-0.000908849,-2.25105E-05,3.88827E-07,0.315488702,1.489456452,5.26782E-05,-0.001608389,-0.083614089
name_15,C,3,-0.000584583,-2.41477E-05,4.93444E-07,-0.242676414,1.419542015,0.000263162,-0.00158228,-0.053781594
name_15,C,4,-0.000232772,-9.02382E-06,6.72331E-08,-0.269243524,1.400187254,6.82119E-05,-0.000606164,-0.02141506
name_15,C,5,-0.000604364,-1.87161E-05,2.60878E-07,-0.134244815,1.396001466,7.45192E-06,-0.00130997,-0.055601498
name_15,C,6,-0.000214645,-2.07978E-05,5.04395E-07,-0.457671872,1.780542245,0.000631581,-0.001429349,-0.019747301
name_15,C,7,-0.000112773,-1.28539E-05,2.04594E-07,-0.268635811,1.584642664,0.000462175,-0.000797585,-0.010375136
name_15,C,8,-0.000392743,-1.94644E-05,3.43362E-07,-0.392324395,1.550659452,0.000283402,-0.001293876,-0.03613236
name_15,C,9,-9.68902E-05,-1.18814E-05,1.75692E-07,-0.424066503,1.756439049,0.000410884,-0.000795288,-0.008913898
name_15,C,10,-4.35654E-05,-9.05398E-06,1.14561E-07,-0.151686353,1.535214978,0.000405976,-0.000537421,-0.004008021
name_15,C,11,-0.000583317,-1.73967E-05,2.27728E-07,-0.037401883,1.342415989,6.3138E-06,-0.001202567,-0.053665149
name_15,C,12,-4.89727E-07,-7.45994E-06,8.80113E-08,-0.104143959,1.531134719,0.000401072,-0.000426698,-4.50549E-05
name_15,C,13,-0.0007405,-1.99292E-05,2.93394E-07,0.115460344,1.442086254,7.22242E-05,-0.001414286,-0.068125974
name_15,C,14,-0.000481697,-1.45248E-05,1.54754E-07,-0.162702064,1.468305916,4.22031E-05,-0.001044223,-0.044316096
name_15,C,15,-0.000115747,-7.30687E-06,5.39572E-08,-0.35956635,1.587062232,0.000163986,-0.000473001,-0.010648719
name_16,B,1,-0.000169924,-1.32276E-06,4.17832E-08,-0.180750322,2.364724308,0.000248977,-0.000696775,-0.015633036
name_16,B,2,-5.47956E-05,-1.1202E-05,2.42532E-07,-1.285801705,3.640119969,0.000437572,-0.001390541,-0.005041194
name_16,B,3,0.000183695,-1.51459E-05,6.57957E-07,-0.783712704,2.650124103,0.001130433,-0.001709685,0.016899943
name_16,B,4,-7.91552E-05,-8.39456E-06,1.09575E-07,-1.343812153,3.633929116,0.000225683,-0.000975741,-0.007282276
name_16,B,5,9.72786E-05,-5.63096E-06,1.1889E-07,-0.871225882,2.954937044,0.000498588,-0.000769867,0.008949632
name_16,B,6,0.000105263,-7.96073E-06,1.99067E-07,-0.818817407,2.758318287,0.000626805,-0.000956898,0.009684168
name_16,B,7,-8.58391E-05,-9.03768E-06,1.31075E-07,-1.330863474,3.608307245,0.000256136,-0.001057945,-0.007897195
name_16,B,8,2.73941E-05,-8.79216E-06,1.74255E-07,-0.972425,2.948476501,0.000486757,-0.000988696,0.002520261
name_16,B,9,0.000112505,-5.1153E-06,1.06879E-07,-0.739531348,2.66767585,0.000504023,-0.000664014,0.010350506
name_16,B,10,-7.257E-05,-7.30738E-06,1.15978E-07,-1.470718797,4.271284558,0.000268788,-0.001067777,-0.006676442
name_16,B,11,-3.8682E-05,-3.9047E-06,5.97989E-08,-1.484467124,4.869336948,0.000232752,-0.000819353,-0.003558742
name_16,B,12,-0.000113587,-8.99052E-06,1.08275E-07,-1.329010106,3.491045477,0.00017544,-0.000988572,-0.010449964
name_16,B,13,-3.71226E-06,-7.3556E-06,1.40435E-07,-1.379110597,4.118375006,0.00037919,-0.001094014,-0.000341528
name_16,B,14,-0.0001481,-4.20082E-06,4.92533E-08,-1.458388224,5.035157466,0.000164484,-0.000883751,-0.013625205
name_16,B,15,-0.000193001,-8.07404E-06,9.10488E-08,-1.787949526,5.101069208,7.75994E-05,-0.001149975,-0.017756113
name_16,C,1,0.000447286,1.62339E-05,2.06601E-07,0.338824161,1.444633465,0.001121435,-4.02433E-05,0.041150313
name_16,C,2,-0.000377955,6.37018E-07,1.01973E-07,0.251809876,1.83784348,0.000307295,-0.000800211,-0.034771839
name_16,C,3,-0.000309356,1.01458E-05,3.69461E-07,0.186110549,1.616881721,0.000708737,-0.001111879,-0.028460719
name_16,C,4,-0.000197427,3.10192E-06,6.70845E-08,0.075045832,1.550301324,0.000275148,-0.000551755,-0.018163252
name_16,C,5,-0.000291554,-2.09419E-08,5.52482E-08,0.334453199,1.874282021,0.000213544,-0.000591982,-0.026823007
name_16,C,6,-0.000497365,-9.48241E-07,1.31883E-07,0.480044587,2.468191879,0.000424524,-0.00096872,-0.045757582
name_16,C,7,-0.000182058,3.25064E-06,6.36997E-08,0.058984035,1.560993308,0.000292323,-0.00053023,-0.016749294
name_16,C,8,-0.000287199,2.50441E-06,9.48837E-08,0.063925992,1.877994479,0.000410238,-0.000728835,-0.026422262
name_16,C,9,-0.000270805,1.92056E-07,4.71905E-08,0.327891245,2.40082319,0.000276785,-0.000571617,-0.024914023
name_16,C,10,0.000104479,1.31947E-05,2.20793E-07,0.207262524,1.552643501,0.000797691,-0.000503595,0.009612035
name_16,C,11,-0.000195867,4.0087E-06,8.5598E-08,0.000852416,1.48913932,0.000303757,-0.000604008,-0.018019809
name_16,C,12,-0.000192935,1.85743E-06,4.48921E-08,0.036211899,1.59736426,0.000215355,-0.000489147,-0.017750045
name_16,C,13,-0.000308908,4.07809E-06,1.43893E-07,0.018777693,1.657273313,0.000474756,-0.000846022,-0.028419564
name_16,C,14,0.000496144,1.90774E-05,3.16123E-07,0.104572667,1.338824048,0.001250725,-0.000217135,0.045645208
name_16,C,15,0.000441352,1.99018E-05,3.79261E-07,1.321690834,3.497883502,0.002132809,-2.65054E-05,0.040604377
name_16,A,1,0.000605157,1.12705E-05,1.15472E-07,-0.99201172,2.453554427,0.000891813,-0.000143411,0.055674472
name_16,A,2,0.000659044,8.35649E-06,1.303E-07,-1.211648233,3.414251069,0.001005024,-0.000305292,0.060632041
name_16,A,3,0.000890106,4.46974E-06,3.53054E-07,-0.586210209,2.407138597,0.001619731,-0.000549105,0.081889769
name_16,A,4,7.9979E-05,-2.51412E-06,2.30465E-08,-0.228382236,1.701438892,0.000279679,-0.00020425,0.007358066
name_16,A,5,0.000299909,1.90136E-06,3.62217E-08,-0.793970894,2.794851373,0.000519944,-0.00019438,0.027591601
name_16,A,6,0.000401922,1.30871E-06,7.65407E-08,-0.599468781,2.673566292,0.000755687,-0.000312621,0.036976839
name_16,A,7,7.19904E-05,-3.22776E-06,2.99188E-08,-0.215591967,1.705054398,0.000301179,-0.000252303,0.006623117
name_16,A,8,0.00014435,-4.05001E-06,6.40732E-08,-0.056444704,1.566215261,0.000496632,-0.000266414,0.013280166
name_16,A,9,0.000507768,2.01702E-06,1.19794E-07,-0.499439198,2.384724986,0.000953629,-0.000323459,0.04671465
name_16,A,10,0.000203498,-1.44009E-06,4.74808E-08,-0.436000451,1.897319283,0.000468438,-0.000253368,0.018721784
name_16,A,11,0.000248056,3.05867E-06,1.95508E-08,-1.145191834,3.328465628,0.000381214,-0.000133113,0.022821125
name_16,A,12,0.000303242,1.25407E-06,4.44663E-08,-0.354580455,2.088773161,0.000581403,-0.000162117,0.027898292
name_16,A,13,0.00023213,1.45892E-06,2.06953E-08,-1.10113995,3.736240286,0.000392698,-0.000195132,0.021355992
name_16,A,14,0.000257792,3.45372E-06,2.03411E-08,-1.280928867,3.992066009,0.000474778,-0.000149322,0.023716838
name_16,A,15,0.000551088,8.91813E-06,8.65189E-08,-1.298369421,3.226833414,0.00077497,-0.000191186,0.050700068
name_17,C,1,-5.79574E-05,-3.53401E-07,1.3888E-09,0.798782488,2.937945879,4.31386E-05,-0.000101476,-0.005332078
name_17,C,2,-7.73635E-05,-9.8697E-06,1.45346E-07,-1.135331366,3.075969499,0.000296108,-0.001022587,-0.007117442
name_17,C,3,-8.91157E-06,-5.3258E-06,4.69645E-08,-0.786032494,2.421705087,0.000233024,-0.00047853,-0.000819865
name_17,C,4,-0.000253443,-9.54799E-06,7.30275E-08,-0.726822493,2.030505968,9.67283E-06,-0.000791512,-0.023316721
name_17,C,5,-3.69771E-05,-3.10261E-06,1.16733E-08,-0.922438817,2.465424918,7.34982E-05,-0.000271114,-0.003401889
name_17,C,6,-0.000170288,-7.82519E-06,5.37967E-08,-0.763551269,2.033629049,4.77577E-05,-0.000629362,-0.015666532
name_17,C,7,-0.000234208,-7.13141E-06,3.70359E-08,-0.247869444,1.605075772,1.08673E-05,-0.000545026,-0.021547126
name_17,C,8,-0.000315016,-9.84058E-06,7.09438E-08,-0.338461923,1.692438423,1.50287E-05,-0.00077905,-0.028981515
name_17,C,9,-0.000264885,-9.67462E-06,7.40045E-08,-0.718213448,2.056557718,1.0621E-05,-0.000813186,-0.024369384
name_17,C,10,-0.000275381,-9.46521E-06,6.80187E-08,-0.458367376,1.676671107,2.63128E-06,-0.000721196,-0.025335022
name_17,C,11,-8.10051E-05,-3.7087E-06,1.29431E-08,-1.076431765,2.645749011,1.02985E-05,-0.000340228,-0.007452466
name_17,C,12,-6.56989E-05,-3.96488E-06,1.77066E-08,-1.11573105,2.752021811,5.26246E-05,-0.000367779,-0.006044299
name_17,C,13,-0.000232423,-1.04427E-05,9.66581E-08,-0.906798067,2.317327853,3.56486E-05,-0.000901479,-0.021382914
name_17,C,14,4.35065E-05,2.8594E-07,1.17858E-09,-0.615864917,2.115687752,8.23109E-05,-3.6136E-05,0.004002603
name_17,C,15,3.41622E-05,-1.22656E-06,5.83451E-09,-0.367294185,2.001493421,0.000133774,-0.000117823,0.003142925
name_17,A,1,-9.31487E-07,-2.58167E-06,1.04981E-08,-0.489414791,1.929327667,0.000120683,-0.000199516,-8.56968E-05
name_17,A,2,-0.000780492,-2.38886E-05,4.64668E-07,0.048337657,1.31220729,0.000120187,-0.001637971,-0.071805225
name_17,A,3,-0.000461308,-1.1732E-05,1.22193E-07,0.173843537,1.39811938,2.09896E-05,-0.000900149,-0.042440301
name_17,A,4,-0.000384604,-1.02186E-05,9.54577E-08,0.176179618,1.392982285,5.21483E-05,-0.000770303,-0.035383576
name_17,A,5,-4.51671E-05,-3.71881E-06,1.7599E-08,0.051996264,1.458469015,0.000142604,-0.000223915,-0.00415537
name_17,A,6,-0.000244272,-6.78089E-06,4.17793E-08,0.106477851,1.372544791,3.53512E-05,-0.000507475,-0.022473043
name_17,A,7,-3.79039E-05,3.1012E-08,4.3607E-09,0.419614962,2.537172264,0.000135649,-0.00012729,-0.003487162
name_17,A,8,9.31209E-06,1.02839E-06,4.43886E-09,1.081016807,3.729095075,0.000203337,-7.12334E-05,0.000856712
name_17,A,9,-0.000311533,-5.99483E-06,4.55575E-08,0.276324495,1.587297649,1.4975E-05,-0.000579965,-0.028661021
name_17,A,10,-0.000173093,-1.59397E-06,2.07651E-08,0.062503167,1.517434193,8.58605E-05,-0.000369526,-0.015924548
name_17,A,11,-0.000209278,-4.26999E-06,2.34935E-08,0.203286441,1.532419033,2.07636E-05,-0.000406489,-0.019253536
name_17,A,12,-0.000391577,-8.97862E-06,9.00849E-08,0.125896784,1.466138731,3.06439E-05,-0.000787704,-0.036025093
name_17,A,13,-0.000444431,-9.90066E-06,9.86975E-08,0.289367121,1.512479919,2.40904E-05,-0.000828457,-0.040887661
name_17,A,14,-0.00029293,-7.23627E-06,3.91201E-08,0.300590997,1.56878206,2.01958E-05,-0.000526444,-0.026949567
name_17,A,15,0.000112906,2.452E-06,5.67538E-09,-0.367688909,1.745860369,0.000206462,-3.85905E-05,0.01038734
name_17,B,1,0.000132881,-4.73156E-06,7.63647E-08,-0.168902487,1.599689475,0.0004999,-0.00030816,0.012225037
name_17,B,2,-0.001029491,-6.38831E-05,4.06428E-06,-0.529875013,1.767807067,0.001236319,-0.004506111,-0.094713178
name_17,B,3,-0.000344282,-1.94167E-05,3.61034E-07,-0.54870616,1.752479988,0.000314219,-0.001367598,-0.031673918
name_17,B,4,-0.001036134,-4.17432E-05,1.42173E-06,-0.449688355,1.578994767,0.000236806,-0.002957951,-0.095324286
name_17,B,5,-0.000724066,-2.79724E-05,6.26044E-07,-0.413302936,1.550901717,0.000130436,-0.001988603,-0.066614041
name_17,B,6,-0.000665866,-2.66388E-05,5.76092E-07,-0.516871197,1.658586146,0.000111135,-0.001950701,-0.061259712
name_17,B,7,-0.000888668,-3.30795E-05,8.62348E-07,-0.393736295,1.519037316,0.000102292,-0.002337868,-0.081757459
name_17,B,8,-0.001103604,-4.13736E-05,1.35134E-06,-0.403306108,1.533196267,0.00013548,-0.002943673,-0.101531588
name_17,B,9,-0.000828405,-3.29052E-05,8.75757E-07,-0.494220766,1.638109477,0.000143571,-0.002402096,-0.07621323
name_17,B,10,-0.001101838,-3.96773E-05,1.22439E-06,-0.355271113,1.491545939,9.55413E-05,-0.002798783,-0.101369095
name_17,B,11,-0.000847622,-3.26146E-05,8.48788E-07,-0.43394378,1.570338114,0.000131931,-0.002338128,-0.077981264
name_17,B,12,-0.000320189,-1.53181E-05,2.1382E-07,-0.86673058,2.208246181,9.4995E-05,-0.001279465,-0.029457406
name_17,B,13,-0.000933161,-4.12352E-05,1.44776E-06,-0.520868025,1.66797758,0.00033791,-0.002961036,-0.085850854
name_17,B,14,-0.000172188,-2.09597E-05,5.47E-07,-0.379011364,1.698537756,0.000735663,-0.001363083,-0.015841253
name_17,B,15,-0.000176614,-2.17291E-05,5.90347E-07,-0.543503758,1.924004919,0.000718656,-0.001605447,-0.016248473
name_19,A,1,0.000646246,1.80429E-05,2.35253E-07,0.046737995,1.554133861,0.001322994,-0.000105579,0.059454654
name_19,A,2,0.000784129,1.73111E-05,2.51187E-07,-0.458842521,1.788266068,0.001368476,-0.00016859,0.072139902
name_19,A,3,0.000316578,-1.26124E-06,1.05575E-07,-0.482073886,1.945617523,0.000701529,-0.00038406,0.029125181
name_19,A,4,7.06745E-05,-3.18521E-06,3.54871E-08,-0.838161346,2.695684581,0.000274681,-0.000396657,0.006502054
name_19,A,5,0.000290984,4.0268E-07,5.29867E-08,-0.439996095,1.922732607,0.000569927,-0.000209157,0.026770485
name_19,A,6,0.000279749,-3.4321E-07,6.82193E-08,-0.463899207,1.893574137,0.00058981,-0.000265843,0.025736892
name_19,A,7,2.55491E-05,-6.6582E-06,8.24204E-08,-0.676411909,2.275423574,0.000351388,-0.000597216,0.002350515
name_19,A,8,-5.04507E-05,-8.87598E-06,1.10101E-07,-0.840171407,2.50348398,0.000302381,-0.000808716,-0.004641464
name_19,A,9,4.47542E-05,-6.13295E-06,7.66053E-08,-0.593398234,2.150609065,0.000367708,-0.000537706,0.004117384
name_19,A,10,0.000165164,-3.81836E-06,7.90901E-08,-0.476204819,2.046820729,0.000508346,-0.00043948,0.015195078
name_19,A,11,0.000193526,-7.50829E-07,4.01317E-08,-0.37297583,1.831410103,0.000442157,-0.00021792,0.01780441
name_19,A,12,0.000249625,7.18158E-07,4.46155E-08,-0.300237238,1.712457695,0.000516813,-0.000155714,0.022965504
name_19,A,13,3.84683E-05,-6.78101E-06,8.7877E-08,-0.555218992,2.08969346,0.000388725,-0.000576066,0.003539086
name_19,A,14,1.59146E-06,-5.46672E-06,5.34647E-08,-0.938531657,2.789523471,0.000245241,-0.000557911,0.000146414
name_19,A,15,-2.50786E-05,-2.49989E-06,9.53821E-09,-1.638572627,4.597859067,4.87329E-05,-0.000324604,-0.002307235
name_19,B,1,0.000949271,2.05685E-05,3.5278E-07,-0.56315759,1.767815851,0.001569842,-0.000126515,0.087332917
name_19,B,2,0.002269381,4.54933E-05,1.90686E-06,-0.642709713,1.926511993,0.003725023,-0.000391012,0.208783066
name_19,B,3,0.004232889,8.79251E-05,6.93371E-06,-0.576946852,1.802429141,0.007050375,-0.000561906,0.389425758
name_19,B,4,6.39435E-05,-3.20412E-06,3.19348E-08,-0.537732648,2.18164822,0.000282386,-0.000318147,0.005882804
name_19,B,5,0.000335291,4.34621E-06,3.78409E-08,-0.73921176,2.403267178,0.000558347,-8.30336E-05,0.030846737
name_19,B,6,0.000442774,6.30968E-06,6.45763E-08,-0.799514425,2.413528144,0.000722479,-0.000101448,0.040735204
name_19,B,7,0.000207098,-1.91787E-06,5.69553E-08,-0.173597727,1.61399708,0.000523959,-0.00020169,0.019053061
name_19,B,8,0.000138521,-2.46794E-06,3.9357E-08,-0.201850287,1.644921084,0.000399953,-0.000207624,0.012743978
name_19,B,9,0.000111375,-3.10178E-06,4.32728E-08,-0.349438555,1.898174461,0.000378118,-0.000300321,0.010246456
name_19,B,10,0.000273859,2.58988E-06,2.96084E-08,-0.519366775,2.145869376,0.000483756,-9.62472E-05,0.025195035
name_19,B,11,0.000127271,-9.24253E-07,2.09999E-08,-0.269801298,1.772356581,0.000315571,-0.0001616,0.011708923
name_19,B,12,1.54983E-05,-2.69086E-06,1.44544E-08,-0.590319827,2.237246286,0.00016158,-0.000243295,0.001425843
name_19,B,13,0.00028548,-1.23867E-07,5.92561E-08,-0.23547048,1.674791438,0.000602329,-0.00016995,0.026264204
name_19,B,14,0.000215225,9.21865E-07,3.13065E-08,-0.191371938,1.603715458,0.000447161,-0.000100442,0.019800673
name_19,B,15,6.216E-05,3.57897E-07,6.08152E-09,-0.232445078,2.1339711,0.000169772,-0.000129926,0.00571872
name_19,C,1,-0.000236767,-1.05252E-05,1.10376E-07,-1.227924894,3.0883169,9.634E-05,-0.001066797,-0.021782547
name_19,C,2,6.66704E-05,-7.33319E-06,1.84057E-07,-1.063382413,3.449209711,0.000555067,-0.00109309,0.006133677
name_19,C,3,-3.00402E-05,-1.23524E-05,3.06242E-07,-1.15074321,3.323933031,0.000550188,-0.001463472,-0.002763697
name_19,C,4,-3.23441E-05,-1.03117E-05,1.73319E-07,-0.873514275,2.569595216,0.00042034,-0.000961611,-0.002975655
name_19,C,5,-7.12204E-05,-7.90053E-06,8.67579E-08,-0.985242206,2.667741138,0.000232039,-0.000734027,-0.006552278
name_19,C,6,-0.000248372,-1.52338E-05,2.44193E-07,-0.922736023,2.344318566,0.000222895,-0.001282667,-0.022850182
name_19,C,7,5.89502E-05,-7.5915E-06,1.3512E-07,-0.726651024,2.459405086,0.000488707,-0.000751001,0.005423416
name_19,C,8,-8.21684E-05,-1.13714E-05,1.81764E-07,-0.891035131,2.502834871,0.000367099,-0.001011645,-0.007559489
name_19,C,9,-4.5042E-05,-1.11218E-05,2.02493E-07,-0.954059459,2.733296588,0.00043458,-0.001085268,-0.004143863
name_19,C,10,-2.49314E-05,-8.15077E-06,1.10376E-07,-0.919309408,2.676546735,0.000332549,-0.000787075,-0.002293685
name_19,C,11,-9.56935E-06,-7.84251E-06,1.08931E-07,-0.917341036,2.710919931,0.00034719,-0.000776087,-0.000880381
name_19,C,12,0.000357538,2.82999E-06,7.19448E-08,-0.127355119,1.560995168,0.000718059,-6.12346E-05,0.032893493
name_19,C,13,-0.000166898,-1.47917E-05,2.76489E-07,-1.031911823,2.721760179,0.000346432,-0.00138153,-0.015354645
name_19,C,14,0.000195777,-5.49295E-06,1.67597E-07,-0.578240111,2.389956316,0.000704036,-0.000737855,0.018011471
name_19,C,15,0.00012208,-4.13356E-06,9.82117E-08,-0.694128998,2.741198486,0.000513044,-0.000643688,0.011231389
k1,A,1,-0.000470068,-1.02899E-05,9.12201E-08,0.507561114,1.649953645,3.64627E-05,-0.000793321,-0.043246238
k1,A,2,-4.61335E-05,-1.45373E-06,2.28104E-09,0.098713326,1.464764954,2.26309E-05,-0.000109668,-0.004244278
k1,A,3,-2.06766E-05,-3.26872E-06,1.42275E-08,-0.280413995,1.600641783,0.000129462,-0.000204175,-0.001902246
k1,A,4,-0.000285382,-9.46444E-06,6.75089E-08,-0.291788564,1.462059066,5.2727E-06,-0.000671947,-0.026255103
k1,A,5,-0.00037699,-1.31109E-05,1.32464E-07,-0.289941073,1.426094222,2.22792E-05,-0.000909048,-0.034683069
k1,A,6,-0.0004614,-1.05696E-05,9.18528E-08,0.428209357,1.599724791,4.55318E-05,-0.000797038,-0.042448793
k1,A,7,5.53894E-05,-3.635E-06,3.27224E-08,-0.171597759,1.632958549,0.000298167,-0.000225773,0.005095824
k1,A,8,-0.000482548,-9.62424E-06,7.95865E-08,0.816013894,2.231741673,0.000130736,-0.000749424,-0.044394397
k1,A,9,-0.000134742,-3.41778E-06,1.09088E-08,0.184352244,1.404433042,1.17291E-05,-0.000265878,-0.012396271
k1,A,10,6.92915E-05,-1.31359E-06,1.04506E-08,-0.045846334,1.531324381,0.000211214,-8.07162E-05,0.006374814
k1,A,11,-0.000400927,-1.04419E-05,7.95478E-08,0.158881213,1.566263468,8.17912E-05,-0.000754442,-0.036885316
k1,A,12,-8.11207E-05,-5.46917E-06,3.12411E-08,-0.45297055,1.649473524,0.00012335,-0.000362431,-0.007463109
k1,A,13,-0.000292914,-1.01115E-05,7.81434E-08,-0.385409484,1.517230265,2.22362E-05,-0.000724704,-0.02694809
k1,A,14,-0.000381946,-1.19455E-05,1.07359E-07,-0.128187939,1.359741082,5.71755E-06,-0.000823477,-0.035138994
k1,A,15,-0.000578942,-1.28911E-05,1.27884E-07,0.585288757,1.896895883,0.000127218,-0.000944326,-0.05326262
k1,B,1,0.001995984,5.79408E-05,2.42414E-06,0.107674759,1.54544428,0.004437455,-0.000140628,0.183630511
k1,B,2,0.000127933,1.75529E-06,4.91244E-09,-1.235366859,3.49719856,0.000194995,-6.42104E-05,0.011769807
k1,B,3,0.000263314,1.60126E-08,5.35222E-08,-0.325329978,1.734056283,0.000553616,-0.000162973,0.024224893
k1,B,4,0.000447709,3.29861E-06,7.84599E-08,-0.76881736,2.774315174,0.000773186,-0.000277915,0.041189209
k1,B,5,0.000143344,-6.27654E-06,1.17755E-07,-0.239011579,1.648401038,0.000586853,-0.00043847,0.013187644
k1,B,6,0.000299674,9.71604E-07,5.09124E-08,-0.35255432,1.870663144,0.000584839,-0.00017985,0.027570042
k1,B,7,0.000424809,-1.77437E-06,1.52951E-07,-0.302908359,1.857166421,0.000930539,-0.000438854,0.039082422
k1,B,8,0.00023525,-3.30356E-06,9.04928E-08,-0.139936102,1.559986246,0.000636771,-0.000254584,0.021643041
k1,B,9,5.03371E-05,-1.03006E-06,6.90348E-09,-0.170464536,1.710048011,0.000163444,-8.74108E-05,0.004631014
k1,B,10,0.00023664,-1.69599E-06,6.68373E-08,-0.414748003,1.840909618,0.000550436,-0.000284035,0.021770859
k1,B,11,-2.23715E-05,-8.15809E-06,9.71542E-08,-0.461458593,1.882615679,0.000353311,-0.000604516,-0.002058174
k1,B,12,-0.000256819,-8.75631E-06,6.02041E-08,-0.143640606,1.351167801,4.1768E-05,-0.000588259,-0.023627377
k1,B,13,1.96228E-05,-1.23793E-05,2.58313E-07,-0.591742469,2.136898969,0.000611515,-0.001058936,0.001805296
k1,B,14,-0.000304771,-1.10876E-05,9.78207E-08,-0.21800609,1.402370351,6.88607E-05,-0.000746688,-0.028038953
k1,B,15,0.000607832,1.77826E-05,2.28562E-07,0.124209365,1.543587796,0.001361308,-5.13749E-05,0.055920515
k1,C,1,0.00063274,2.05293E-05,3.14185E-07,0.516810518,1.936998303,0.001750793,-4.75952E-05,0.058212078
k1,C,2,7.4396E-05,4.2345E-06,4.0878E-08,1.818558788,5.598220235,0.000752117,-0.000110406,0.006844433
k1,C,3,-0.000148032,-2.51089E-07,1.61735E-07,0.539981508,3.228310834,0.001032847,-0.000719661,-0.013618933
k1,C,4,-0.000135039,-4.17129E-06,3.67722E-08,-0.205696342,1.565233442,0.000118199,-0.000429513,-0.012423616
k1,C,5,-0.000266898,-8.99078E-06,8.65818E-08,-0.007009283,1.444398643,0.00013643,-0.00067547,-0.024554621
k1,C,6,-0.00010916,-2.82338E-06,1.68806E-08,-0.144546369,1.559919123,6.9915E-05,-0.000304463,-0.01004272
k1,C,7,-0.000244227,-9.39264E-06,1.14143E-07,-0.122239088,1.539491865,0.00021372,-0.000745796,-0.022468846
k1,C,8,-0.000141116,-7.12653E-06,4.61588E-08,-0.407915712,1.590373757,0.000107006,-0.000487717,-0.012982659
k1,C,9,1.51836E-05,6.70221E-07,3.18654E-09,1.036882532,3.886662728,0.000186534,-5.33958E-05,0.001396887
k1,C,10,-0.000335175,-1.26091E-05,1.79452E-07,-0.064625249,1.482129933,0.000240341,-0.000942072,-0.030836055
k1,C,11,-0.00028078,-1.21952E-05,1.35413E-07,-0.151504113,1.368638686,0.000182815,-0.000786496,-0.025831732
k1,C,12,-6.04789E-05,-1.11844E-06,1.194E-08,-0.066323799,1.932286274,0.000185928,-0.000228518,-0.005564056
k1,C,13,-0.000372182,-1.79786E-05,3.26449E-07,-0.103105902,1.415047251,0.000378546,-0.001171917,-0.034240709
k1,C,14,-3.2411E-06,2.71242E-07,3.18671E-09,0.672324798,3.269191792,0.000158803,-8.11831E-05,-0.000298181
k1,C,15,0.00014747,1.13501E-06,8.06932E-09,-0.870019874,3.00671353,0.000250147,-9.09989E-05,0.013567256
name_20,A,1,0.000109204,2.46439E-06,4.80885E-09,-0.293524967,2.246205691,0.000261572,-8.97659E-06,0.010046736
name_20,A,2,0.000147181,-2.22183E-06,4.91375E-08,-0.125386321,1.741821883,0.000456547,-0.000229347,0.013540638
name_20,A,3,6.11588E-07,-6.27894E-07,1.93839E-09,-0.024065037,1.562096085,6.36546E-05,-6.45262E-05,5.62661E-05
name_20,A,4,0.00014349,-3.56094E-07,2.2818E-08,-0.064576082,1.600179487,0.000353683,-0.000112671,0.013201068
name_20,A,5,0.000233591,4.38483E-06,1.93359E-08,-0.746566158,1.949956754,0.000375688,-1.56666E-05,0.021490369
name_20,A,6,-4.07875E-05,-1.77869E-06,5.64404E-09,-0.155677545,1.598366487,6.22835E-05,-0.000155559,-0.003752451
name_20,A,7,0.000257617,5.07113E-06,2.17243E-08,-0.893101524,2.364939793,0.000443322,-6.38981E-05,0.023700738
name_20,A,8,0.000136299,2.3148E-06,7.4993E-09,-0.499999109,1.853271668,0.000244117,-1.16427E-05,0.012539498
name_20,A,9,-2.89802E-05,-1.20061E-06,1.22542E-09,-0.850651182,2.190149444,2.3249E-06,-0.000101042,-0.002666175
name_20,A,10,0.000140073,2.21723E-06,6.04845E-09,-0.979942509,2.5881425,0.000225955,-2.92031E-05,0.012886739
name_20,A,11,7.80294E-05,-3.7788E-07,7.37971E-09,-0.122027672,1.61821062,0.000195063,-6.65371E-05,0.007178704
name_20,A,12,-6.32609E-05,-2.29572E-06,4.62515E-09,-0.085940477,1.333497509,2.30242E-05,-0.000155492,-0.00582
name_20,A,13,0.000255465,1.87337E-06,4.09308E-08,-0.110075855,1.55857376,0.00052957,-7.28345E-05,0.02350278
name_20,A,14,0.000138036,1.11126E-06,1.20772E-08,-0.002979781,1.50225391,0.000292528,-2.05513E-05,0.012699269
name_20,A,15,0.000105266,-7.33705E-07,1.63553E-08,-0.285084896,1.876714261,0.000273328,-0.000157682,0.009684455
name_20,C,1,0.000574765,1.05827E-05,1.26597E-07,-0.55762993,1.842176772,0.000980258,-4.14981E-05,0.052878375
name_20,C,2,7.75496E-05,3.59276E-06,2.35572E-08,0.357054676,1.676901755,0.000329442,-0.000118047,0.007134567
name_20,C,3,-0.000122752,2.53964E-06,3.532E-08,0.260141801,1.685891429,0.000216869,-0.000364772,-0.011293164
name_20,C,4,0.001302765,3.34472E-05,8.61169E-07,-0.258306853,1.407755495,0.002341546,-3.56682E-05,0.119854409
name_20,C,5,0.002027451,5.23605E-05,2.07081E-06,-0.237165769,1.43077562,0.003666347,-8.40058E-05,0.186525505
name_20,C,6,1.74441E-05,3.82492E-06,2.02362E-08,0.644885861,2.320375671,0.000346164,-0.000149389,0.001604858
name_20,C,7,0.001709276,4.13303E-05,1.36949E-06,-0.36404415,1.468856635,0.002979708,-5.50713E-05,0.157253357
name_20,C,8,0.001283591,3.2524E-05,8.50783E-07,-0.267232279,1.395205382,0.002341173,-2.76717E-05,0.118090379
name_20,C,9,-0.000515617,-1.33785E-05,1.288E-07,0.14510592,1.645570194,9.84208E-05,-0.000998848,-0.047436771
name_20,C,10,0.001604393,3.92255E-05,1.21138E-06,-0.348118655,1.467272356,0.002798242,-6.39903E-05,0.147604119
name_20,C,11,0.001070893,2.58173E-05,5.66252E-07,-0.317795739,1.444329256,0.001939546,-2.70126E-05,0.098522122
name_20,C,12,-0.000231181,-5.68152E-06,2.36282E-08,0.229240993,2.156006578,0.000105266,-0.000447396,-0.021268681
name_20,C,13,0.001255888,2.53051E-05,6.47683E-07,-0.492365411,1.698339708,0.002177758,-6.25101E-05,0.115541701
name_20,C,14,0.000966551,2.2363E-05,4.31722E-07,-0.399074514,1.498544444,0.001697216,-2.74478E-05,0.088922648
name_20,C,15,0.001118136,2.63699E-05,5.65152E-07,-0.398555471,1.513253051,0.00193418,-5.17048E-05,0.102868495
name_20,B,1,-0.000706019,-1.1115E-05,1.48008E-07,1.449822918,4.559623995,0.000464922,-0.001322382,-0.064953733
name_20,B,2,-0.001719492,-3.76868E-05,1.10035E-06,0.632673897,2.040840803,0.000500019,-0.002801708,-0.158193245
name_20,B,3,0.000178396,2.84237E-06,9.45084E-09,-1.123062852,2.814720159,0.000266824,-4.76435E-05,0.016412399
name_20,B,4,-0.001921137,-2.99344E-05,1.07852E-06,1.261521843,3.304489844,0.0008046,-0.002821801,-0.176744624
name_20,B,5,-0.00185788,-2.76125E-05,9.89696E-07,1.343425765,3.547921634,0.000833105,-0.002719544,-0.170924946
name_20,B,6,0.000151297,5.28262E-06,2.14581E-08,0.315757878,1.57998848,0.000389871,-2.29589E-05,0.013919367
name_20,B,7,-0.002274162,-3.34489E-05,1.484E-06,1.362245842,3.6336246,0.001071504,-0.003325151,-0.209222905
name_20,B,8,-0.001924034,-3.7338E-05,1.21171E-06,0.920724936,2.401648656,0.00055996,-0.002871419,-0.177011093
name_20,B,9,0.000345296,5.434E-06,3.46183E-08,-1.231413713,3.116418379,0.000506292,-0.000119894,0.031767241
name_20,B,10,-0.002255335,-3.99024E-05,1.52606E-06,1.177366805,2.998271587,0.000860315,-0.003214085,-0.207490782
name_20,B,11,-0.000966166,-2.26321E-05,3.74374E-07,0.421666777,1.995186517,0.000268304,-0.001847762,-0.08888727
name_20,B,12,-8.48876E-06,2.90676E-06,1.46353E-08,0.198938198,1.56532094,0.0001759,-0.000165195,-0.000780966
name_20,B,13,-0.001797015,-2.85254E-05,9.60273E-07,1.175260742,3.063324062,0.000668653,-0.002675927,-0.165325425
name_20,B,14,-0.001471413,-2.59914E-05,6.46969E-07,1.183098952,2.999940439,0.000548442,-0.002086435,-0.135369994
name_20,B,15,-0.001628019,-3.19226E-05,8.65017E-07,0.926208388,2.435577251,0.0004878,-0.00241801,-0.149777734
name_21,B,1,-2.63734E-05,1.15857E-05,2.70157E-07,0.856378391,2.612420376,0.001136429,-0.000602097,-0.002426356
name_21,B,2,-0.000230979,-5.12042E-06,4.297E-08,-0.738818186,3.981337029,0.000219063,-0.00081851,-0.021250022
name_21,B,3,-2.06384E-05,1.37542E-07,2.42146E-09,0.58518285,3.148423471,0.000116417,-8.90985E-05,-0.001898737
name_21,B,4,-5.17942E-05,-3.75601E-06,1.5302E-08,-0.872805722,2.464769099,7.66126E-05,-0.000339521,-0.00476507
name_21,B,5,-6.75065E-05,-4.20899E-06,1.85488E-08,-0.171891586,1.454520432,0.000109399,-0.000259536,-0.006210596
name_21,B,6,-0.000104105,-3.67045E-06,1.12786E-08,-0.197392929,1.307169485,1.63307E-05,-0.00025302,-0.009577626
name_21,B,7,-0.000202694,-4.73356E-06,1.6595E-08,0.479883418,1.972649485,7.26801E-05,-0.000370967,-0.018647845
name_21,B,8,-0.000212172,-6.17622E-06,2.86098E-08,0.025954813,1.337597602,2.86134E-06,-0.000421973,-0.019519849
name_21,B,9,4.6667E-06,8.1482E-07,1.09832E-09,-0.196394484,1.503139753,4.79351E-05,-4.5226E-05,0.000429337
name_21,B,10,-0.000127339,-4.05919E-06,1.21195E-08,-0.379819767,1.738356418,1.98658E-05,-0.000332675,-0.011715194
name_21,B,11,-0.000146844,-4.31673E-06,1.92424E-08,-0.028734531,1.3974255,3.45179E-05,-0.00034005,-0.013509664
name_21,B,12,-0.00010615,-3.03707E-06,6.91801E-09,0.022556643,1.351232675,4.60302E-06,-0.000210928,-0.009765823
name_21,B,13,-5.05114E-05,-2.16792E-06,3.98597E-09,-0.570504544,1.70774607,2.37209E-05,-0.000166667,-0.004647052
name_21,B,14,-0.00013663,-2.3129E-06,1.47669E-08,-0.188785063,1.46397689,2.61191E-05,-0.000318528,-0.012569961
name_21,B,15,-0.000155671,-1.11916E-06,1.35719E-08,0.219818662,1.653808977,5.1658E-05,-0.00030808,-0.014321694
name_21,A,1,8.35763E-05,3.39179E-06,2.66335E-07,0.009231911,1.808480031,0.000869308,-0.001008602,0.007689016
name_21,A,2,-0.001066212,-3.00319E-05,6.46539E-07,-0.079863295,1.625853969,0.000113618,-0.002374102,-0.098091511
name_21,A,3,3.6869E-05,2.15782E-06,4.67738E-09,0.182968496,1.47793035,0.000133457,-5.10778E-05,0.003391947
name_21,A,4,-0.000447437,-7.08438E-06,5.86033E-08,1.382489593,4.192420677,0.000257748,-0.000825098,-0.041164159
name_21,A,5,-0.000288418,-1.10107E-05,9.60887E-08,-0.577229873,1.800036073,1.9253E-05,-0.000872583,-0.026534424
name_21,A,6,-0.000218077,-4.21226E-06,1.50691E-08,1.056416845,2.881204902,9.49099E-05,-0.000327624,-0.020063119
name_21,A,7,-0.000326633,-4.62573E-06,2.97038E-08,1.568550725,4.306863556,0.000178531,-0.000495204,-0.030050236
name_21,A,8,-0.00012058,-3.07079E-08,8.76737E-09,0.206343391,2.194482754,9.64634E-05,-0.000254494,-0.011093404
name_21,A,9,-4.91846E-05,4.55556E-07,3.04136E-09,0.118142783,1.563204496,4.04894E-05,-0.000123697,-0.004524981
name_21,A,10,-0.000295648,-2.78714E-06,2.81287E-08,1.179765259,3.847632959,0.000181433,-0.000489387,-0.027199646
name_21,A,11,-0.000207482,-2.1375E-06,1.39978E-08,1.278822924,4.104960076,0.000143212,-0.000338097,-0.01908832
name_21,A,12,-0.000256036,-3.68827E-06,1.91696E-08,1.212933468,3.233565596,9.81803E-05,-0.000388449,-0.02355534
name_21,A,13,-0.000354122,-3.7265E-06,4.02793E-08,1.288111453,4.089474622,0.000236219,-0.000573786,-0.032579255
name_21,A,14,-0.000129432,-4.03797E-07,9.1619E-09,0.743457617,3.414054274,0.000155581,-0.000256484,-0.011907714
name_21,A,15,0.000853502,2.86602E-05,6.58695E-07,0.110946354,1.308874093,0.00193524,-0.000130913,0.078522142
name_21,C,1,0.007360005,0.000295876,7.18727E-05,0.443692522,1.548390103,0.020580355,-0.001660441,0.677120431
name_21,C,2,0.002945994,5.47267E-05,2.8945E-06,-0.858604346,2.287399301,0.004585721,-0.000735147,0.271031494
name_21,C,3,-0.00038667,-9.55884E-06,6.89141E-08,0.314866956,1.536948153,4.74279E-05,-0.000682516,-0.035573636
name_21,C,4,0.001853564,5.48143E-05,2.29351E-06,-0.008955662,1.317456146,0.003754711,-5.81823E-05,0.170527903
name_21,C,5,9.98307E-05,-2.03379E-06,2.80492E-08,-0.431167282,2.098003065,0.000312447,-0.000260827,0.009184422
name_21,C,6,0.00010748,2.48477E-06,5.00212E-09,-0.515202652,1.573359639,0.000177079,-6.39492E-06,0.009888129
name_21,C,7,0.000470067,2.27851E-06,1.10571E-07,-0.290931664,1.871705903,0.000905612,-0.000208136,0.043246186
name_21,C,8,0.000493818,9.62804E-06,8.89796E-08,-0.673317188,1.929718154,0.000804628,-6.52415E-05,0.045431278
name_21,C,9,0.000333809,4.21536E-06,4.07123E-08,-0.598313284,2.206911309,0.000572627,-9.72201E-05,0.030710457
name_21,C,10,0.000231996,-1.53779E-06,6.16053E-08,-0.150621205,1.587049582,0.000563486,-0.000179245,0.021343678
name_21,C,11,0.000616192,8.19727E-06,1.37249E-07,-0.591918057,2.15436938,0.001054912,-0.000141828,0.056689646
name_21,C,12,0.000409178,7.26191E-06,6.23545E-08,-0.590282646,1.913620063,0.000692282,-3.67512E-05,0.037644355
name_21,C,13,0.000430109,-6.99295E-07,1.60751E-07,-0.122167058,1.566037283,0.000971018,-0.000218782,0.039570039
name_21,C,14,0.000775622,1.18555E-05,2.09872E-07,-0.67951102,2.190597752,0.00129301,-0.000161849,0.07135724
name_21,C,15,0.003248783,8.71612E-05,5.69926E-06,-0.147777156,1.398652686,0.006109935,-0.00011944,0.298887998
name_22,B,1,0.00588023,0.000177936,2.34373E-05,0.111856452,1.39789764,0.01245888,-0.000103263,0.540981188
name_22,B,2,0.007502614,0.000208182,3.13356E-05,-0.006809039,1.510463002,0.015145308,-0.001000738,0.690240445
name_22,B,3,0.001585336,4.05765E-05,1.19625E-06,-0.166645828,1.934305549,0.00306704,-0.000732471,0.14585087
name_22,B,4,0.001915411,4.6931E-05,1.62113E-06,-0.322274193,1.695397269,0.003414205,-0.000458583,0.176217854
name_22,B,5,0.002047857,5.04029E-05,1.86159E-06,-0.309343776,1.690935159,0.003678807,-0.00046535,0.188402868
name_22,B,6,0.00085597,2.27398E-05,3.77737E-07,-0.122560008,1.508533833,0.001629103,-0.000138469,0.078749203
name_22,B,7,0.002260146,5.99659E-05,2.58933E-06,-0.097940563,1.596113988,0.004435174,-0.000433075,0.20793344
name_22,B,8,0.000865418,2.44236E-05,4.31013E-07,0.04306901,1.520935648,0.001785702,-0.000130328,0.079618463
name_22,B,9,0.000375807,7.23278E-06,4.67581E-08,-0.958211337,2.812568104,0.000594993,-0.000178267,0.034574258
name_22,B,10,0.001037233,3.30446E-05,8.14216E-07,0.221593049,1.434070626,0.002335869,-2.56406E-05,0.095425397
name_22,B,11,0.001274248,3.68614E-05,9.99224E-07,0.022122374,1.4028634,0.002588682,-4.09554E-05,0.117230833
name_22,B,12,0.001443591,3.62321E-05,9.67799E-07,-0.270180435,1.577714999,0.002598061,-0.000239114,0.132810333
name_22,B,13,0.001500567,4.78031E-05,1.70401E-06,0.208870459,1.430833552,0.003380287,-1.25715E-05,0.138052183
name_22,B,14,0.003333102,0.000102871,7.88558E-06,0.121349006,1.386781191,0.007164681,-5.82821E-05,0.306645391
name_22,B,15,0.002069484,8.45699E-05,5.88054E-06,0.439201047,1.576300783,0.005977278,-0.000560226,0.190392486
name_22,C,1,-0.000245044,-2.67792E-06,2.87561E-08,0.232215928,1.687592563,6.01014E-05,-0.000467018,-0.022544049
name_22,C,2,-0.000123273,-1.35185E-06,1.00364E-08,0.032929483,1.507004309,4.92115E-05,-0.000261842,-0.01134114
name_22,C,3,-0.000164053,-2.27622E-06,1.68319E-08,-0.020682256,1.459094499,1.3017E-05,-0.000346055,-0.015092872
name_22,C,4,-6.29673E-05,-6.86854E-07,1.26811E-08,0.011916048,1.915609226,0.000184588,-0.000231406,-0.005792995
name_22,C,5,-0.000103796,-1.63001E-06,8.62753E-09,-0.115680801,1.462849476,2.83786E-05,-0.000238888,-0.009549255
name_22,C,6,-4.59418E-05,-1.18847E-06,6.69482E-09,-0.162334223,1.643091853,0.00010196,-0.000171983,-0.004226645
name_22,C,7,4.37301E-05,1.44183E-06,6.94861E-09,1.09232491,3.920593076,0.000291743,-8.73736E-05,0.004023165
name_22,C,8,-0.000228268,-4.20873E-06,2.7321E-08,0.114815496,1.522111142,8.56935E-06,-0.000450457,-0.021000678
name_22,C,9,-0.000266993,-5.65051E-06,3.75423E-08,0.16968512,1.506244086,1.01038E-05,-0.0005202,-0.024563331
name_22,C,10,-1.45728E-05,8.1891E-07,1.15593E-08,0.753986359,3.302793916,0.000288947,-0.00015748,-0.001340694
name_22,C,11,4.4052E-05,8.41915E-07,5.80896E-09,0.613614181,3.065499532,0.000259283,-9.53251E-05,0.004052788
name_22,C,12,-0.00012388,-1.67654E-06,1.54909E-08,-0.109925868,1.573695123,0.000111119,-0.000307106,-0.011396927
name_22,C,13,2.12779E-05,3.20016E-10,4.64695E-09,0.124053246,1.841970941,0.000172873,-9.45947E-05,0.001957567
name_22,C,14,-0.000112335,-8.96939E-07,6.15045E-09,0.318902042,1.778716595,3.95779E-05,-0.000211979,-0.010334839
name_22,C,15,-0.000224154,-5.7129E-06,2.67782E-08,0.23144092,1.385710771,4.10331E-06,-0.000418402,-0.020622206
name_22,A,1,0.000516995,1.63025E-05,2.14013E-07,0.026127172,1.306109246,0.001118629,-6.8064E-05,0.047563546
name_22,A,2,0.000180263,-6.86571E-07,5.97107E-08,-0.695251538,2.940596139,0.000480449,-0.000509149,0.016584178
name_22,A,3,0.00037949,5.88917E-06,4.02995E-08,-1.520047882,4.027194107,0.000517192,-0.000198213,0.034913044
name_22,A,4,0.000607264,1.39749E-05,1.53371E-07,-0.428115703,1.768078749,0.001063863,-0.000141635,0.055868334
name_22,A,5,0.000455175,9.04398E-06,7.19619E-08,-0.771603651,2.212559423,0.000726629,-0.000126367,0.041876146
name_22,A,6,0.000336885,4.57495E-06,3.25327E-08,-1.384391798,3.764474953,0.000494217,-0.000163907,0.030993466
name_22,A,7,-0.000193177,-1.74632E-05,3.53326E-07,-0.724976699,2.196349752,0.000453281,-0.001446991,-0.017772308
name_22,A,8,0.000328854,2.30133E-06,5.17492E-08,-0.4818351,1.962949421,0.000600104,-0.000155264,0.030254544
name_22,A,9,0.000307709,3.71575E-06,2.6873E-08,-1.603655087,4.570391333,0.000453062,-0.000189637,0.028309193
name_22,A,10,3.03438E-05,-7.04718E-06,9.13616E-08,-0.678729714,2.37374614,0.000377993,-0.00067615,0.002791627
name_22,A,11,0.000227711,1.27882E-06,2.55004E-08,-0.665711985,2.215606223,0.000403873,-0.000142896,0.020949414
name_22,A,12,0.000293515,4.47003E-06,2.38671E-08,-1.660185066,4.58784185,0.000444099,-0.000175368,0.027003356
name_22,A,13,0.000679958,1.79885E-05,2.49256E-07,-0.14036069,1.409505562,0.0013016,-4.83124E-05,0.062556151
name_22,A,14,-0.000157074,-9.7815E-06,1.00556E-07,-1.061821519,2.820825675,0.000135718,-0.000942639,-0.014450807
name_22,A,15,-0.000714473,-2.86491E-05,6.68466E-07,-0.463582331,1.575215682,0.000140001,-0.002028727,-0.065731498
name_23,C,1,4.35491E-05,-2.20676E-05,8.4805E-07,-0.553234234,2.052786268,0.001140457,-0.00176505,0.004006518
name_23,C,2,-0.002909138,-5.63501E-05,2.73144E-06,0.964494515,2.560893447,0.000986226,-0.004348788,-0.267640711
name_23,C,3,-0.001092307,-2.49474E-05,4.79588E-07,0.487712262,1.809483841,0.000245592,-0.00186055,-0.100492282
name_23,C,4,3.72177E-05,-1.03315E-05,1.91774E-07,-0.349816747,1.770677467,0.000592263,-0.000691232,0.003424028
name_23,C,5,-0.000983022,-2.10934E-05,3.525E-07,0.670856808,2.112946255,0.000296385,-0.001606452,-0.090438027
name_23,C,6,5.06881E-05,-8.18683E-06,1.29202E-07,-0.235085884,1.642012644,0.00051975,-0.000511023,0.004663306
name_23,C,7,-0.000985518,-2.82284E-05,5.87278E-07,-0.030461606,1.416844626,8.76175E-05,-0.002002017,-0.090667682
name_23,C,8,-0.000442911,-1.47176E-05,1.65291E-07,-0.296901462,1.428615171,2.9566E-05,-0.001038513,-0.040747825
name_23,C,9,0.000953469,7.16031E-06,3.59919E-07,-0.569498618,2.435206908,0.001705236,-0.000457492,0.087719152
name_23,C,10,-0.001194536,-2.31566E-05,4.6981E-07,0.91482953,2.4869254,0.000405945,-0.001833982,-0.109897274
name_23,C,11,0.000168235,-1.0959E-07,2.04093E-08,0.038711341,1.643780755,0.00037629,-8.75036E-05,0.015477647
name_23,C,12,-0.001388993,-3.31861E-05,8.1312E-07,0.384587388,1.774077732,0.000326433,-0.002447435,-0.127787367
name_23,C,13,0.000270739,2.67378E-07,7.6299E-08,-0.23763011,1.827784808,0.000639475,-0.000307434,0.024907992
name_23,C,14,-0.00165462,-3.30593E-05,8.97328E-07,0.921257924,2.530060268,0.000572074,-0.002542236,-0.152225074
name_23,C,15,0.000189373,-4.45833E-06,1.01127E-07,-0.271497191,1.738565996,0.000601338,-0.00038695,0.017422283
name_23,A,1,-0.00038107,-1.18989E-05,1.0713E-07,-0.66834019,2.410340353,2.36432E-05,-0.001126125,-0.035058476
name_23,A,2,0.000458929,1.10006E-05,8.85294E-08,-0.371843264,1.776984492,0.000876418,-7.70712E-05,0.042221434
name_23,A,3,-0.000186249,-2.83037E-06,1.03257E-08,1.129976033,2.938756839,5.79677E-05,-0.000276957,-0.017134946
name_23,A,4,-0.000372677,-1.49966E-05,1.84192E-07,-0.674524823,1.901713851,3.19251E-05,-0.001190395,-0.034286327
name_23,A,5,-0.000193626,-2.24346E-06,1.46604E-08,0.445657859,1.915973667,2.81444E-05,-0.000342027,-0.01781355
name_23,A,6,-0.000239561,-6.1444E-06,2.73083E-08,-0.035934433,2.104164879,6.48899E-05,-0.000521223,-0.022039652
name_23,A,7,-0.000507368,-1.22831E-05,1.13156E-07,0.357487202,1.604641804,4.25305E-05,-0.00089096,-0.046677877
name_23,A,8,-0.000185508,-5.32097E-06,2.04299E-08,-0.261062206,1.827725819,1.99243E-05,-0.000430942,-0.017066744
name_23,A,9,-0.000522481,-1.64677E-05,1.99375E-07,-0.356353085,1.69055408,1.89217E-05,-0.001294902,-0.048068275
name_23,A,10,0.000151395,3.30492E-06,2.09243E-08,0.310206657,1.497773323,0.000377848,-3.48761E-05,0.01392836
name_23,A,11,-0.00020871,-7.53547E-06,4.63767E-08,-0.955989355,2.659533065,7.06122E-06,-0.000721568,-0.019201293
name_23,A,12,0.000197057,3.9322E-06,1.49859E-08,-0.577184505,1.834702243,0.000332865,-3.1112E-05,0.018129288
name_23,A,13,-0.000172307,-1.08312E-05,1.2042E-07,-0.661997603,1.870277846,0.000196424,-0.000778712,-0.015852286
name_23,A,14,0.000605299,1.49275E-05,1.66004E-07,-0.321106192,1.578198165,0.001065127,-8.81577E-05,0.055687554
name_23,A,15,1.20902E-05,-2.20794E-06,1.53358E-08,-1.20332187,3.710797283,0.000146896,-0.000329921,0.001112303
name_23,B,1,-0.001132634,-3.34116E-05,8.146E-07,-0.093090852,1.458621325,3.80143E-05,-0.002424186,-0.104202294
name_23,B,2,-4.21879E-05,-9.17383E-07,1.48007E-09,1.026706264,4.644125504,9.41062E-05,-9.62757E-05,-0.003881287
name_23,B,3,-0.000223833,-7.64165E-06,4.92416E-08,-0.139938046,1.316412022,4.01852E-05,-0.00053135,-0.020592597
name_23,B,4,8.57168E-05,-4.21837E-06,5.70024E-08,-0.474247338,2.087429107,0.000384931,-0.000395241,0.007885948
name_23,B,5,-0.000375021,-9.19316E-06,6.68023E-08,0.3031062,1.488466843,3.38739E-05,-0.000674001,-0.034501963
name_23,B,6,0.000415477,5.2983E-06,5.00547E-08,-1.317509621,3.692683171,0.00063571,-0.000197475,0.038223865
name_23,B,7,-0.001181246,-2.65592E-05,5.71044E-07,0.499836158,1.684259249,0.000159041,-0.001981617,-0.108674616
name_23,B,8,-0.000190635,-5.74512E-06,2.69813E-08,-0.04591274,1.318825413,9.22912E-06,-0.0004116,-0.017538447
name_23,B,9,0.000443712,4.74042E-06,6.78541E-08,-0.734680472,2.611957336,0.000754946,-0.000165445,0.040821498
name_23,B,10,4.31448E-05,-3.07401E-06,3.30526E-08,-0.500213322,2.265734676,0.000282491,-0.000313393,0.003969319
name_23,B,11,0.000166742,3.05606E-07,1.99351E-08,0.016565857,1.504305746,0.000366729,-4.42542E-05,0.015340221
name_23,B,12,2.69279E-05,-4.49494E-06,3.99868E-08,-0.347927134,1.781739254,0.000282139,-0.000305188,0.002477367
name_23,B,13,-3.54933E-05,-5.23025E-06,3.74962E-08,-0.059150094,1.492441566,0.000230225,-0.000308395,-0.003265381
name_23,B,14,0.000274178,3.989E-06,2.85536E-08,-0.482001512,1.964005058,0.000481461,-4.01356E-05,0.025224392
name_23,B,15,-1.10096E-05,-5.62263E-06,4.97317E-08,-0.626118784,2.126083071,0.000249922,-0.000449271,-0.001012887
name_24,C,1,0.000182172,1.81651E-06,1.0315E-08,-1.524865121,4.669756189,0.000278537,-0.000137449,0.016759793
name_24,C,2,0.000911915,1.3527E-05,2.59935E-07,-1.002452548,2.807651112,0.00142187,-0.000319315,0.083896159
name_24,C,3,0.001125107,1.9164E-05,4.34167E-07,-0.751112789,2.237249967,0.001828712,-0.000265244,0.103509806
name_24,C,4,0.000569288,4.7024E-06,1.26693E-07,-0.604525318,2.331772425,0.000995699,-0.000244048,0.052374512
name_24,C,5,0.000695665,1.13686E-05,1.63448E-07,-0.774740947,2.28246949,0.001124183,-0.00015777,0.064001169
name_24,C,6,0.000648948,1.13516E-05,1.63412E-07,-0.491473048,1.876225669,0.001125803,-9.41164E-05,0.05970322
name_24,C,7,0.000786208,7.30056E-06,2.20886E-07,-0.7621081,2.656017016,0.001331797,-0.000351469,0.072331116
name_24,C,8,0.000519598,7.55792E-06,8.51193E-08,-0.956399469,2.689972082,0.000813794,-0.000159867,0.047802971
name_24,C,9,0.00042773,6.88211E-06,6.63062E-08,-0.605325027,2.00099567,0.000717506,-4.99432E-05,0.039351148
name_24,C,10,0.000853676,9.51602E-06,2.38804E-07,-0.903735423,2.854448663,0.001395064,-0.000344589,0.078538201
name_24,C,11,0.00058457,6.39709E-06,1.17584E-07,-0.771470411,2.569467289,0.000974592,-0.000213813,0.053780473
name_24,C,12,0.000553259,7.47162E-06,1.04806E-07,-0.722154905,2.324024967,0.000915716,-0.000138256,0.050899832
name_24,C,13,0.000854184,9.10099E-06,2.53585E-07,-0.747051726,2.544924416,0.001434833,-0.000313103,0.07858493
name_24,C,14,0.000636121,7.32297E-06,1.38336E-07,-0.766667331,2.540875199,0.001059247,-0.000221051,0.058523157
name_24,C,15,0.000632241,6.88114E-06,1.4051E-07,-0.754728373,2.541500467,0.001057801,-0.000250742,0.058166201
name_24,B,1,-0.00033065,-1.58141E-05,2.20679E-07,-0.461487126,1.71043007,0.000205262,-0.001176511,-0.030419811
name_24,B,2,-0.000670482,-2.05826E-05,3.20939E-07,-0.033446836,1.339550537,4.29575E-05,-0.001398213,-0.061684313
name_24,B,3,-0.000419477,-1.67524E-05,2.50744E-07,-0.102683523,1.349598971,0.000221049,-0.00109671,-0.038591873
name_24,B,4,-0.000533154,-1.74691E-05,2.44843E-07,-0.022562127,1.303336835,0.000100842,-0.001159707,-0.049050164
name_24,B,5,-0.000264944,-1.15676E-05,1.20426E-07,-0.167394799,1.381479641,0.00017047,-0.000743798,-0.024374824
name_24,B,6,-0.000217331,-1.28796E-05,1.70383E-07,-0.19651687,1.45660683,0.000309336,-0.000807474,-0.019994486
name_24,B,7,-0.000327699,-1.12006E-05,1.11119E-07,0.019614993,1.335452235,0.0001182,-0.000759894,-0.030148344
name_24,B,8,-0.000236547,-9.37951E-06,7.51268E-08,-0.160957588,1.355698275,0.000102994,-0.00060926,-0.02176234
name_24,B,9,-0.000279177,-1.25288E-05,1.38146E-07,-0.267272262,1.43364064,0.000167855,-0.000810553,-0.02568427
name_24,B,10,-0.000228824,-7.30139E-06,5.70793E-08,0.035178321,1.450574131,0.00010512,-0.000554562,-0.021051845
name_24,B,11,-9.96902E-05,-4.2129E-06,2.0289E-08,-0.032876081,1.490936768,9.73355E-05,-0.000301754,-0.009171497
name_24,B,12,-0.000212858,-7.1237E-06,4.48082E-08,0.016595793,1.32801111,6.82037E-05,-0.000488058,-0.019582959
name_24,B,13,-0.000359234,-1.36322E-05,1.59235E-07,-0.096636522,1.334212593,0.000148325,-0.000889038,-0.033049503
name_24,B,14,-0.000164071,-3.01736E-06,1.32244E-08,0.158704698,1.569005479,7.00552E-06,-0.00031722,-0.015094514
name_24,B,15,-0.000783819,-2.46956E-05,4.53593E-07,-0.15800263,1.426344873,2.1914E-05,-0.001781335,-0.072111329
name_24,A,1,0.000660511,2.25211E-05,3.86253E-07,0.61911112,2.056796115,0.001967634,-1.38399E-05,0.060767028
name_24,A,2,0.000587772,1.47455E-05,1.63826E-07,-0.316489719,1.485177332,0.001053708,-2.04976E-05,0.054075028
name_24,A,3,0.000286453,3.38646E-06,5.28179E-08,-0.065984887,1.534406978,0.000601619,-0.000122676,0.026353699
name_24,A,4,0.000442238,6.44889E-06,8.24402E-08,-0.359658662,1.836953198,0.000804262,-0.000110773,0.040685937
name_24,A,5,0.000106707,8.62815E-07,1.48128E-08,-0.324634247,2.4522124,0.000277506,-0.000217966,0.00981703
name_24,A,6,0.000391711,9.48834E-06,9.4385E-08,0.020548294,1.455802062,0.000824147,-5.36552E-06,0.036037374
name_24,A,7,0.000116011,-2.98808E-06,6.12743E-08,-0.922348422,3.151779716,0.000396434,-0.000555637,0.010673054
name_24,A,8,0.000214197,2.23542E-06,3.7561E-08,-0.097051209,1.728825342,0.000484761,-0.00019982,0.01970616
name_24,A,9,0.000356229,9.30481E-06,7.76098E-08,-0.041233797,1.40339243,0.000732357,-4.25315E-06,0.032773066
name_24,A,10,0.000102839,-4.16384E-06,7.90465E-08,-1.006190404,3.268889614,0.000410018,-0.000663539,0.009461213
name_24,A,11,0.000234468,7.56041E-07,4.96512E-08,-0.344947633,1.927353632,0.00052029,-0.000266623,0.021571071
name_24,A,12,2.68963E-05,1.16639E-06,7.39301E-09,0.239943859,2.054717958,0.000170706,-0.000170795,0.002474459
name_24,A,13,0.000555055,7.40356E-06,1.38134E-07,-0.285314977,1.739725322,0.00103331,-0.000127746,0.051065086
