name,task,channel,avg,slope,variance,skewness,kurtosis,max,min,sum
name_1,A,1,-0.000594662,-6.93347E-05,4.78133E-07,0.124953128,1.73963554,0.000578095,-0.001639361,-0.02021852
name_1,A,2,-0.000968448,-0.000112751,1.28418E-06,0.331778459,1.806868903,0.001116171,-0.002470546,-0.032927246
name_1,A,3,-0.000273363,-3.26058E-05,1.05903E-07,0.16285319,1.93367379,0.000325961,-0.000798738,-0.00929434
name_1,A,4,-0.000352149,-4.22687E-05,1.82446E-07,0.467499756,2.128415816,0.000529596,-0.00095759,-0.011973068
name_1,A,5,-0.00073098,-8.43809E-05,7.10866E-07,0.158225624,1.6765677,0.000674302,-0.001929563,-0.024853334
name_1,A,6,-0.00012273,-1.45819E-05,2.11395E-08,0.122509613,1.891699161,0.000138551,-0.000358279,-0.004172803
name_1,A,7,-0.000698297,-8.19061E-05,6.73501E-07,0.288115899,1.839000032,0.000815458,-0.001858803,-0.023742108
name_1,A,8,-0.000526282,-6.11425E-05,3.74142E-07,0.224080105,1.741706725,0.00054395,-0.001387206,-0.017893601
name_1,A,9,-0.00034085,-3.96015E-05,1.55942E-07,0.101575982,1.709987497,0.000315221,-0.000936073,-0.011588883
name_1,A,10,-0.000773586,-9.0887E-05,8.27235E-07,0.260627319,1.839918726,0.000894487,-0.002089846,-0.026301923
name_1,A,11,-0.000878465,-0.000101662,1.03469E-06,0.213441078,1.7109035,0.000873224,-0.002292602,-0.029867804
name_1,A,12,-0.000460515,-5.39737E-05,2.91548E-07,0.247894279,1.816780746,0.000519515,-0.00123819,-0.015657515
name_1,A,13,-0.000597645,-7.03672E-05,5.20908E-07,0.615169933,2.10928247,0.000907466,-0.001420061,-0.020319944
name_1,A,14,-0.000625026,-7.27126E-05,5.32369E-07,0.298964474,1.785106418,0.000698704,-0.001608754,-0.02125088
name_1,A,15,-0.000685105,-8.00128E-05,6.38888E-07,0.197752094,1.771417067,0.000721294,-0.001853069,-0.023293561
name_1,B,1,-0.000548033,-6.42821E-05,4.11862E-07,-0.185982673,1.800912153,0.000413031,-0.00168629,-0.018633127
name_1,B,2,-0.000615446,-7.20888E-05,5.22031E-07,-0.291929141,1.829655797,0.000399172,-0.001943996,-0.02092518
name_1,B,3,8.13493E-06,6.14497E-07,6.4586E-09,-0.540789034,1.999727405,0.000100135,-0.000156433,0.000276588
name_1,B,4,-0.000112115,-1.33258E-05,4.3709E-08,-1.132431084,3.30527275,9.03316E-05,-0.000654593,-0.003811909
name_1,B,5,-0.00042355,-4.96596E-05,2.45206E-07,0.133651095,1.78483899,0.000436342,-0.001182998,-0.014400694
name_1,B,6,-6.38408E-05,-7.54031E-06,7.63547E-09,-1.108534699,2.940857384,1.17488E-05,-0.000277889,-0.002170587
name_1,B,7,-0.000394548,-4.6379E-05,2.18223E-07,-0.393056152,1.912129352,0.000231468,-0.001294262,-0.013414641
name_1,B,8,-0.000158252,-1.86903E-05,3.48662E-08,-0.216293274,1.865007231,0.000124733,-0.000499759,-0.005380566
name_1,B,9,-0.000136784,-1.61426E-05,2.73646E-08,-0.613240319,2.120159596,5.55622E-05,-0.00048252,-0.004650652
name_1,B,10,-0.000465643,-5.4669E-05,3.01665E-07,-0.345772268,1.875143852,0.000288309,-0.001502794,-0.015831859
name_1,B,11,-0.00031992,-3.76473E-05,1.41344E-07,-0.199955208,1.830478398,0.000246502,-0.000996404,-0.010877265
name_1,B,12,-8.6127E-05,-1.03139E-05,1.49603E-08,-1.201507421,3.174149551,1.60384E-05,-0.000395672,-0.002928318
name_1,B,13,-0.000357037,-4.18618E-05,1.82571E-07,-0.55547371,2.02048348,0.000142579,-0.001222625,-0.012139246
name_1,B,14,-0.000357355,-4.18333E-05,1.82759E-07,-0.562450998,2.017061675,0.000133977,-0.001222859,-0.012150085
name_1,B,15,-0.000419622,-4.9222E-05,2.42675E-07,-0.260405858,1.827622976,0.000288598,-0.001319214,-0.014267141
name_1,C,1,-0.000216701,-2.71524E-05,7.34145E-08,0.603807891,2.042881835,0.000336426,-0.00050941,-0.007151148
name_1,C,2,-6.09297E-05,-7.71125E-06,5.59054E-09,0.191816429,1.897328853,7.48664E-05,-0.000179629,-0.002010681
name_1,C,3,0.000129505,1.60204E-05,2.62163E-08,-0.636989555,2.017980532,0.000293544,-0.000198575,0.004273679
name_1,C,4,0.000128976,1.60166E-05,2.62758E-08,-0.661425937,2.061969139,0.00029175,-0.000203936,0.00425622
name_1,C,5,-7.32631E-05,-9.28519E-06,1.1513E-08,1.055012255,2.83474666,0.000183717,-0.000171064,-0.002417683
name_1,C,6,5.78451E-05,7.14559E-06,6.03454E-09,-0.859673883,2.378394119,0.000132535,-0.000113102,0.001908889
name_1,C,7,4.91651E-05,6.02309E-06,3.4239E-09,-0.177196126,1.652554762,0.000129989,-4.7557E-05,0.00162245
name_1,C,8,1.35546E-05,1.59695E-06,7.01276E-10,1.018487103,3.073913514,8.04405E-05,-1.32078E-05,0.000447301
name_1,C,9,-5.57467E-06,-7.24684E-07,1.50342E-10,-1.41578621,4.215098707,5.49702E-06,-4.09046E-05,-0.000183964
name_1,C,10,-2.75863E-05,-3.38025E-06,2.37956E-09,-1.221379004,3.476883201,1.7941E-05,-0.000155969,-0.000910349
name_1,C,11,-6.8694E-05,-8.68893E-06,9.27238E-09,1.006634962,2.686065151,0.000156601,-0.000155373,-0.002266903
name_1,C,12,7.25115E-05,9.17151E-06,1.15186E-08,-1.050229074,2.838136927,0.000171472,-0.000184486,0.002392879
name_1,C,13,-1.26272E-05,-1.49433E-06,1.34654E-09,-0.875573917,2.848504349,2.65069E-05,-0.000104729,-0.000416698
name_1,C,14,0.000144662,1.75842E-05,3.398E-08,0.859826972,2.381599154,0.00055336,-2.55218E-05,0.004773862
name_1,C,15,0.000197614,2.43606E-05,5.61085E-08,-0.229280378,1.709830217,0.000520391,-0.000212302,0.006521247
name_2,A,1,0.000103421,1.17011E-05,2.03723E-08,-0.932897023,2.605986108,0.00024328,-0.00022442,0.003516327
name_2,A,2,-0.000214305,-2.51058E-05,6.57964E-08,-0.562822131,2.022925027,8.16836E-05,-0.000734677,-0.007286375
name_2,A,3,-0.000404855,-4.7374E-05,2.31744E-07,-0.501652399,1.959563944,0.000176271,-0.001358423,-0.013765056
name_2,A,4,-0.000111231,-1.32673E-05,1.95848E-08,-0.855780427,2.471323363,2.80811E-05,-0.000429606,-0.00378185
name_2,A,5,-0.000470019,-5.48054E-05,2.98529E-07,-0.10549588,1.737304832,0.000363072,-0.001390901,-0.015980644
name_2,A,6,-0.000441673,-5.13965E-05,2.62437E-07,-0.08062073,1.718697101,0.000342866,-0.001290393,-0.015016887
name_2,A,7,-0.000173698,-2.0498E-05,4.32245E-08,-0.500719531,2.014926752,9.14112E-05,-0.000591808,-0.005905741
name_2,A,8,-0.000221297,-2.59393E-05,6.71108E-08,-0.197237293,1.799490247,0.000162988,-0.0006823,-0.007524081
name_2,A,9,-0.000228475,-2.66743E-05,7.07505E-08,-0.123638236,1.750243434,0.000175136,-0.000682308,-0.007768144
name_2,A,10,-0.000266546,-3.1182E-05,9.73087E-08,-0.243979618,1.800575141,0.000180901,-0.000828427,-0.009062576
name_2,A,11,-0.000178706,-2.09418E-05,4.43862E-08,-0.366206854,1.873110455,0.000104106,-0.000577741,-0.00607602
name_2,A,12,-0.000123522,-1.45149E-05,2.15547E-08,-0.455273917,1.952202763,6.47092E-05,-0.000412283,-0.00419974
name_2,A,13,-0.000298166,-3.49601E-05,1.22467E-07,-0.264429941,1.826055588,0.000202947,-0.000937472,-0.010137647
name_2,A,14,-0.000215443,-2.51213E-05,6.28853E-08,-0.166985256,1.751199279,0.000154363,-0.000649631,-0.007325057
name_2,A,15,-0.000219862,-2.56875E-05,6.546E-08,-0.020151207,1.743551778,0.000190115,-0.000637588,-0.007475313
name_2,C,1,-0.000141014,-1.65063E-05,4.61506E-08,-1.138454959,3.135835529,5.68638E-05,-0.000681125,-0.004794483
name_2,C,2,-0.000403845,-4.73536E-05,2.35797E-07,-0.600518506,2.069107554,0.000140054,-0.00140493,-0.013730714
name_2,C,3,-0.00047909,-5.59481E-05,3.1964E-07,-0.426028318,1.891098308,0.000232236,-0.001567833,-0.016289072
name_2,C,4,-0.000299937,-3.50722E-05,1.30093E-07,-0.61617785,2.069505605,8.95156E-05,-0.001044058,-0.010197847
name_2,C,5,-0.000452538,-5.30126E-05,2.85069E-07,-0.384314405,1.883586224,0.000252645,-0.00147145,-0.015386279
name_2,C,6,-0.00040294,-4.7245E-05,2.22086E-07,-0.149550558,1.788793781,0.000314523,-0.0012266,-0.013699951
name_2,C,7,-0.000398541,-4.65132E-05,2.14804E-07,-0.071316371,1.739387142,0.00032234,-0.001170952,-0.013550396
name_2,C,8,-0.000179033,-2.09424E-05,4.79934E-08,-0.738299808,2.220359896,3.61489E-05,-0.000650233,-0.006087125
name_2,C,9,-0.000222374,-2.60799E-05,6.78057E-08,-0.189221527,1.801731179,0.000166073,-0.000685404,-0.007560702
name_2,C,10,-0.000490132,-5.71772E-05,3.2521E-07,-0.131264817,1.746115733,0.000368346,-0.001464586,-0.016664482
name_2,C,11,-0.000389078,-4.54315E-05,2.05169E-07,-0.114887186,1.750120851,0.000300525,-0.001160561,-0.013228649
name_2,C,12,-0.000195994,-2.28815E-05,5.52298E-08,-0.599685541,2.043810577,5.86524E-05,-0.0006771,-0.006663786
name_2,C,13,-0.000458195,-5.35951E-05,2.89249E-07,-0.314816793,1.833593645,0.000278394,-0.001455642,-0.015578624
name_2,C,14,-0.000359514,-4.19331E-05,1.74556E-07,-0.059559468,1.733764365,0.000291493,-0.001051824,-0.01222348
name_2,C,15,-0.000285406,-3.32749E-05,1.14816E-07,-0.513744789,1.953230746,0.000107068,-0.000957505,-0.009703803
name_2,B,1,-0.000763263,-8.98537E-05,8.2337E-07,-0.436907516,1.95473593,0.000423735,-0.002547214,-0.025950944
name_2,B,2,-0.000733894,-8.60335E-05,7.35786E-07,-0.126812013,1.782719301,0.00058503,-0.002219851,-0.024952387
name_2,B,3,-0.000670387,-7.83488E-05,6.09878E-07,-0.102504175,1.754797302,0.000530053,-0.001997676,-0.022793165
name_2,B,4,-0.000323763,-3.80183E-05,1.43834E-07,-0.155358556,1.802858049,0.000254169,-0.000992471,-0.011007936
name_2,B,5,-0.00059218,-6.92385E-05,4.76522E-07,0.118554885,1.759956173,0.00058686,-0.001650054,-0.020134127
name_2,B,6,-0.000541946,-6.31023E-05,3.96702E-07,0.158030017,1.737703573,0.000538179,-0.00147127,-0.01842615
name_2,B,7,-0.000527088,-6.15861E-05,3.76779E-07,0.097337487,1.75102745,0.000508832,-0.001476296,-0.017921003
name_2,B,8,-0.000378992,-4.43627E-05,1.95201E-07,0.00880853,1.757791778,0.000341906,-0.001096965,-0.012885742
name_2,B,9,-0.000397344,-4.64295E-05,2.13914E-07,0.04808111,1.74593263,0.000366276,-0.001130622,-0.013509686
name_2,B,10,-0.00046105,-5.41072E-05,2.90898E-07,0.116311463,1.787817287,0.000468184,-0.001302242,-0.01567571
name_2,B,11,-0.000546803,-6.38742E-05,4.05166E-07,0.084604113,1.747342867,0.00052061,-0.001536441,-0.018591319
name_2,B,12,-0.000342069,-3.99222E-05,1.58594E-07,-0.140247708,1.752367596,0.000253931,-0.001027839,-0.011630332
name_2,B,13,-0.000539947,-6.30595E-05,3.94501E-07,0.019122455,1.740550766,0.000481825,-0.001547614,-0.018358205
name_2,B,14,-0.00051203,-5.9912E-05,3.59543E-07,0.255763038,1.806324522,0.000572864,-0.001367496,-0.017409019
name_2,B,15,-0.000408376,-4.76689E-05,2.25523E-07,0.051468676,1.738299853,0.000374019,-0.001157423,-0.013884792
name_3,B,1,0.001225186,0.000141936,2.02327E-06,-0.256802149,1.739404651,0.003146845,-0.001293089,0.041656324
name_3,B,2,-0.000623848,-7.32412E-05,5.53632E-07,-0.508061382,1.986499073,0.00028939,-0.002110273,-0.021210828
name_3,B,3,-0.000444647,-5.18894E-05,3.10465E-07,-0.856156662,2.386988076,6.97936E-05,-0.001686104,-0.015117985
name_3,B,4,-0.000324199,-3.76149E-05,1.8207E-07,-0.980833444,2.63043868,6.39919E-05,-0.001314909,-0.011022764
name_3,B,5,-0.000228738,-2.6709E-05,8.23259E-08,-0.860571618,2.396971429,3.57946E-05,-0.000869485,-0.007777078
name_3,B,6,-0.00018417,-2.18892E-05,4.82559E-08,0.337002874,1.967701563,0.000241764,-0.000504969,-0.00626177
name_3,B,7,-0.000275087,-3.27289E-05,1.19485E-07,0.857029546,2.472198164,0.000512687,-0.000607635,-0.009352953
name_3,B,8,-0.000176453,-2.07953E-05,4.3454E-08,-0.305906179,1.883429446,0.000122174,-0.000567938,-0.00599939
name_3,B,9,-0.000165328,-1.96545E-05,3.83852E-08,0.101582507,1.893517597,0.000184752,-0.000486274,-0.005621136
name_3,B,10,-0.000229205,-2.73539E-05,8.26666E-08,0.839032133,2.462618875,0.000424978,-0.000520573,-0.007792986
name_3,B,11,-9.69618E-05,-1.1967E-05,2.44646E-08,1.390672023,3.781793015,0.000329274,-0.000225603,-0.003296702
name_3,B,12,-0.000299225,-3.5018E-05,1.26725E-07,-0.506802716,1.967358772,0.000127889,-0.001007066,-0.010173646
name_3,B,13,-0.000315825,-3.71755E-05,1.38193E-07,-0.24245583,1.846499379,0.000233428,-0.000995286,-0.010738038
name_3,B,14,-0.000139126,-1.64303E-05,2.91796E-08,-0.732690534,2.25860844,3.89171E-05,-0.000510083,-0.004730285
name_3,B,15,-0.000197047,-2.39899E-05,9.33365E-08,-1.321103666,3.554018601,5.81538E-05,-0.001007521,-0.0066996
name_3,A,1,-0.001019612,-0.000120047,1.45183E-06,-0.332299173,1.892182943,0.000664075,-0.003306179,-0.034666799
name_3,A,2,-0.00141769,-0.000165577,2.72074E-06,-0.050528411,1.742678321,0.001181766,-0.004146905,-0.048201473
name_3,A,3,-0.000805128,-9.41278E-05,8.84099E-07,-0.198903889,1.77991098,0.000573322,-0.002466346,-0.027374368
name_3,A,4,-0.000777921,-9.09897E-05,8.21765E-07,-0.068091695,1.755515577,0.000646644,-0.002296365,-0.026449299
name_3,A,5,-0.000686959,-8.03303E-05,6.42013E-07,-0.142263035,1.766308979,0.000524087,-0.00207192,-0.023356622
name_3,A,6,-0.00045953,-5.37453E-05,2.89531E-07,-0.263143724,1.807954176,0.000300715,-0.001437253,-0.015624035
name_3,A,7,-0.000572227,-6.68234E-05,4.44308E-07,-0.140673598,1.7557166,0.000430695,-0.00171884,-0.019455709
name_3,A,8,-0.000378886,-4.4299E-05,1.95903E-07,-0.206037464,1.783728141,0.000266357,-0.001164586,-0.012882127
name_3,A,9,-0.000581523,-6.78157E-05,4.57405E-07,-0.125324853,1.742439601,0.000437247,-0.001733705,-0.019771779
name_3,A,10,-0.000552952,-6.45762E-05,4.14409E-07,-0.107636982,1.749513702,0.000432395,-0.001645203,-0.018800369
name_3,A,11,-0.000609526,-7.11554E-05,5.0639E-07,-0.230081245,1.781015129,0.000406407,-0.001879803,-0.020723885
name_3,A,12,-0.000674467,-7.87077E-05,6.15355E-07,-0.089719971,1.740910634,0.000533796,-0.001991836,-0.022931862
name_3,A,13,-0.000752927,-8.79195E-05,7.68584E-07,-0.122858644,1.751386455,0.000578455,-0.002249136,-0.02559953
name_3,A,14,-0.00067446,-7.87482E-05,6.15212E-07,0.010529783,1.738278349,0.000596695,-0.001934912,-0.022931635
name_3,A,15,-0.000623026,-7.3065E-05,5.55711E-07,-0.552099551,2.021263251,0.000250734,-0.002134384,-0.02118287
name_3,C,1,-0.00215784,-0.000255139,6.46852E-06,-0.118740004,1.849252202,0.001896013,-0.006656385,-0.073366549
name_3,C,2,-0.001675164,-0.000196331,3.82415E-06,-0.04824413,1.769214129,0.001451771,-0.004942243,-0.056955591
name_3,C,3,-0.000519335,-6.10102E-05,3.93339E-07,-0.627887012,2.106927019,0.000176218,-0.001826509,-0.017657387
name_3,C,4,-0.000586205,-6.8593E-05,4.94562E-07,-0.591712563,2.045161848,0.000197372,-0.002024725,-0.019930963
name_3,C,5,-0.000488554,-5.72804E-05,3.34699E-07,-0.42944778,1.91965981,0.000255331,-0.001612575,-0.016610846
name_3,C,6,-0.000485611,-5.70136E-05,3.23633E-07,0.166038527,1.802583028,0.000517972,-0.001349673,-0.016510766
name_3,C,7,-0.000825923,-9.68637E-05,9.40758E-07,0.273003772,1.832878152,0.000956046,-0.002205621,-0.028081383
name_3,C,8,-0.000429798,-5.04138E-05,2.53049E-07,-0.165054246,1.795844825,0.000330337,-0.001316015,-0.014613144
name_3,C,9,-0.000457423,-5.36551E-05,2.86144E-07,0.124458882,1.786289723,0.000468791,-0.001283518,-0.015552384
name_3,C,10,-0.000914874,-0.000107356,1.15681E-06,0.286417594,1.843271811,0.001074231,-0.002436596,-0.031105707
name_3,C,11,-0.000672607,-7.89639E-05,6.18823E-07,0.072963609,1.7848704,0.000663265,-0.001923,-0.022868636
name_3,C,12,-0.000228611,-2.70293E-05,8.05352E-08,-0.799780785,2.352521118,4.85383E-05,-0.000858368,-0.00777279
name_3,C,13,-0.000889102,-0.000104149,1.07621E-06,-0.050798963,1.76530658,0.000765243,-0.002620714,-0.030229481
name_3,C,14,-0.00021494,-2.53196E-05,7.04655E-08,-0.778030671,2.305198078,4.43004E-05,-0.000797677,-0.007307953
name_3,C,15,-0.000396778,-4.69402E-05,4.48752E-07,-1.169519757,3.312026496,0.000231328,-0.002127645,-0.013490437
name_4,B,1,-0.000316469,-3.67384E-05,1.3827E-07,-0.428581326,1.853258138,0.000134634,-0.001023385,-0.010759949
name_4,B,2,-0.000249143,-2.8665E-05,8.47087E-08,0.431474376,1.808090463,0.000296416,-0.000581599,-0.008470855
name_4,B,3,-0.000206902,-2.36701E-05,5.61605E-08,0.166816579,1.625648461,0.000181873,-0.000524907,-0.007034674
name_4,B,4,-0.000221931,-2.56407E-05,6.94348E-08,0.564519568,1.949815971,0.000300989,-0.000501677,-0.007545641
name_4,B,5,-0.000212885,-2.46971E-05,6.0586E-08,-0.044925267,1.693282836,0.0001661,-0.000610633,-0.007238075
name_4,B,6,-9.47609E-05,-1.09038E-05,1.18683E-08,0.135175107,1.651749849,8.3959E-05,-0.000248945,-0.003221872
name_4,B,7,-0.000239042,-2.75369E-05,7.64289E-08,-0.271672448,1.71114354,0.000119331,-0.000725067,-0.008127423
name_4,B,8,-2.27863E-05,-2.63017E-06,2.05441E-09,0.961992117,2.943200879,8.99161E-05,-6.93625E-05,-0.000774736
name_4,B,9,2.02767E-05,2.42706E-06,2.67645E-09,0.957672104,3.010337695,0.000152479,-3.32664E-05,0.000689407
name_4,B,10,1.11677E-06,2.9893E-07,6.84484E-09,-0.616001939,2.125698547,9.33594E-05,-0.000177197,3.79701E-05
name_4,B,11,-8.60938E-06,-9.54446E-07,1.17024E-10,0.731998563,2.068730924,1.28453E-05,-1.94731E-05,-0.000292719
name_4,B,12,-0.000174716,-2.01178E-05,4.0377E-08,0.126654034,1.654916322,0.000155096,-0.000460497,-0.005940345
name_4,B,13,-0.000110446,-1.27445E-05,1.72143E-08,0.573568266,1.95489336,0.000150527,-0.000248557,-0.003755172
name_4,B,14,-0.000282348,-3.28033E-05,1.06915E-07,-0.074038949,1.706720234,0.00021659,-0.000820479,-0.009599836
name_4,B,15,-0.000501043,-5.81129E-05,3.55405E-07,-0.565358771,1.96901963,0.000140604,-0.001691432,-0.017035454
name_4,C,1,-0.000295678,-3.43404E-05,1.18247E-07,0.247604105,1.74987763,0.000312457,-0.00077142,-0.010053042
name_4,C,2,-0.000157115,-1.83482E-05,3.51951E-08,0.560109641,2.004756291,0.000221816,-0.000368655,-0.005341923
name_4,C,3,-0.000265123,-3.09129E-05,9.48439E-08,0.043864727,1.729511282,0.000239543,-0.000749636,-0.009014187
name_4,C,4,-0.00031853,-3.70871E-05,1.3699E-07,0.151820486,1.736362002,0.000315178,-0.000865834,-0.010830006
name_4,C,5,-0.000283031,-3.29456E-05,1.07767E-07,-0.05356398,1.718251673,0.00022681,-0.000821495,-0.009623045
name_4,C,6,-0.000166933,-1.94472E-05,3.84016E-08,-0.377278041,1.842975484,8.4523E-05,-0.000536014,-0.005675708
name_4,C,7,-0.000304933,-3.53372E-05,1.24854E-07,-0.200730788,1.719653166,0.000189925,-0.000916823,-0.010367713
name_4,C,8,-0.000100197,-1.15866E-05,1.53829E-08,-0.80186201,2.283198111,1.80534E-05,-0.000370283,-0.003406694
name_4,C,9,-0.000270925,-3.14172E-05,1.01562E-07,-0.451541158,1.86873806,0.000103518,-0.0008827,-0.009211447
name_4,C,10,7.99207E-06,1.17583E-06,5.70629E-09,-0.708630007,2.408887479,9.09944E-05,-0.000172202,0.00027173
name_4,C,11,-0.00015497,-1.78726E-05,3.32771E-08,-0.496327661,1.877322295,4.6495E-05,-0.00050754,-0.005268995
name_4,C,12,-0.000326443,-3.81065E-05,1.44147E-07,-0.063365425,1.739987502,0.000266963,-0.000957255,-0.011099057
name_4,C,13,-0.000387848,-4.5018E-05,2.0156E-07,-0.102095625,1.704319813,0.000283273,-0.001134738,-0.01318682
name_4,C,14,-0.000184776,-2.1511E-05,4.59955E-08,-0.101834252,1.725961712,0.000139904,-0.000544994,-0.006282371
name_4,C,15,-0.000427415,-4.97103E-05,2.4548E-07,0.07374426,1.713615023,0.00038755,-0.001189575,-0.014532095
name_4,A,1,2.29425E-05,2.46501E-06,1.21068E-09,-0.711443952,2.310310327,6.10162E-05,-5.26048E-05,0.000780044
name_4,A,2,-0.000215192,-2.52641E-05,6.40847E-08,0.291065529,1.850486908,0.000255131,-0.000572465,-0.007316511
name_4,A,3,-0.00019916,-2.34626E-05,5.50215E-08,0.237065276,1.853911326,0.000231505,-0.000545945,-0.006771424
name_4,A,4,-0.000328669,-3.83969E-05,1.46262E-07,-0.021091905,1.742995869,0.000284091,-0.000952853,-0.011174748
name_4,A,5,-0.000312548,-3.65618E-05,1.32631E-07,-0.044689445,1.754328073,0.000267156,-0.000916045,-0.010626636
name_4,A,6,-0.000183537,-2.16561E-05,4.71482E-08,-0.31250222,1.895902866,0.000127896,-0.000593472,-0.006240244
name_4,A,7,-0.000261727,-3.06118E-05,9.33363E-08,-0.167020389,1.773308798,0.00019556,-0.00079455,-0.008898734
name_4,A,8,-0.0001551,-1.81941E-05,3.33473E-08,-0.325148111,1.858031419,9.75614E-05,-0.00049675,-0.005273409
name_4,A,9,-0.000226278,-2.65865E-05,7.05422E-08,-0.21048793,1.821321424,0.000169422,-0.000703817,-0.007693466
name_4,A,10,-0.000166063,-1.95156E-05,3.77978E-08,-0.073568431,1.792664557,0.000144992,-0.000496495,-0.005646141
name_4,A,11,-0.000136513,-1.60899E-05,2.56763E-08,0.028423761,1.813429271,0.00013435,-0.000399756,-0.004641438
name_4,A,12,-0.000303312,-3.56015E-05,1.25794E-07,-0.073947039,1.783344932,0.000260326,-0.000905066,-0.0103126
name_4,A,13,-0.000197542,-2.31338E-05,5.32761E-08,-0.158841365,1.780862556,0.00015123,-0.000600265,-0.006716434
name_4,A,14,-4.80947E-06,-8.29768E-07,6.28954E-10,-1.186655751,3.955911957,2.15064E-05,-7.71983E-05,-0.000163522
name_4,A,15,0.000316207,3.65059E-05,1.52423E-07,-0.789555233,2.248801762,0.000688241,-0.000525489,0.010751053
name_5,C,1,-0.000204454,-2.38224E-05,5.75705E-08,0.370130418,1.839854686,0.000246514,-0.000513554,-0.006951447
name_5,C,2,-0.000444408,-5.16137E-05,2.65015E-07,-0.11286884,1.709092068,0.00032619,-0.001302507,-0.015109864
name_5,C,3,0.000197567,2.30899E-05,5.76986E-08,0.700176515,2.169248391,0.000707855,-4.42763E-05,0.006717283
name_5,C,4,-0.000402623,-4.68275E-05,2.1925E-07,-0.214647264,1.746927172,0.000262916,-0.001222383,-0.013689196
name_5,C,5,-9.73563E-05,-1.14156E-05,2.76701E-08,1.127217785,3.234399861,0.000329162,-0.00025621,-0.003310114
name_5,C,6,9.6843E-05,1.12229E-05,3.78161E-08,0.99178866,3.019540099,0.000587507,-0.000100776,0.003292661
name_5,C,7,-7.87054E-05,-9.25063E-06,9.68306E-09,0.848287647,2.41606842,0.000142879,-0.000170992,-0.002675983
name_5,C,8,6.01342E-05,6.95405E-06,1.19643E-08,1.032852962,3.065995077,0.000335799,-4.89842E-05,0.002044562
name_5,C,9,-7.92927E-05,-9.27807E-06,2.4419E-08,1.04545288,3.138212736,0.0003207,-0.000235245,-0.002695953
name_5,C,10,-0.000234465,-2.73719E-05,8.23439E-08,0.743098493,2.221797478,0.000383017,-0.000515309,-0.007971823
name_5,C,11,-0.000298626,-3.49319E-05,1.29362E-07,0.627315856,2.087072803,0.000447803,-0.00068321,-0.010153286
name_5,C,12,-0.000139093,-1.62308E-05,3.03318E-08,0.853745371,2.392717598,0.000249929,-0.00030117,-0.004729151
name_5,C,13,-0.000864702,-0.00010077,1.00779E-06,0.033665856,1.725065206,0.000772949,-0.002445383,-0.029399853
name_5,C,14,-0.000530816,-6.19106E-05,3.80479E-07,0.056548539,1.73289719,0.000488863,-0.001493834,-0.018047756
name_5,C,15,-0.000681167,-7.94301E-05,6.27732E-07,-0.134633919,1.743142712,0.000509536,-0.002032862,-0.023159689
name_5,A,1,-0.000354724,-4.12799E-05,1.70243E-07,0.204597011,1.74879949,0.00036762,-0.000943974,-0.012060606
name_5,A,2,-0.000485994,-5.65268E-05,3.17171E-07,-0.022299024,1.710042103,0.000400888,-0.001392073,-0.016523812
name_5,A,3,-4.37127E-05,-4.84864E-06,2.40448E-09,0.136108979,1.47527767,2.90719E-05,-0.000104427,-0.001486232
name_5,A,4,-0.000345829,-4.03156E-05,1.61717E-07,0.133810259,1.741259805,0.000340231,-0.000948771,-0.011758176
name_5,A,5,-0.000490098,-5.67957E-05,3.25816E-07,0.315376266,1.770395228,0.000545447,-0.00123242,-0.016663338
name_5,A,6,-8.30966E-06,-8.27105E-07,6.0208E-10,0.5983789,2.088972958,4.36054E-05,-3.57934E-05,-0.000282529
name_5,A,7,-0.000178966,-2.06441E-05,4.68416E-08,0.690827448,2.102463881,0.000271476,-0.000394152,-0.006084829
name_5,A,8,-0.000302226,-3.48031E-05,1.25565E-07,0.464986857,1.840380725,0.00037173,-0.000699604,-0.010275671
name_5,A,9,0.000149039,1.75016E-05,3.04175E-08,-0.097634587,1.790113581,0.00042482,-0.000149493,0.005067324
name_5,A,10,-0.000391918,-4.56078E-05,2.1299E-07,0.433395313,1.874536245,0.000493211,-0.000955675,-0.013325224
name_5,A,11,-0.000275074,-3.18197E-05,1.03419E-07,0.395744671,1.810681256,0.000325427,-0.000663949,-0.00935252
name_5,A,12,-4.35371E-05,-4.9044E-06,2.61393E-09,0.53670128,1.843279722,5.38867E-05,-9.79674E-05,-0.001480262
name_5,A,13,-0.000836051,-9.75305E-05,9.53218E-07,0.253636744,1.784797982,0.000918732,-0.002206631,-0.028425728
name_5,A,14,-0.000534706,-6.22342E-05,3.85461E-07,0.133656443,1.729557395,0.000519627,-0.001458917,-0.018179999
name_5,A,15,-0.000746453,-8.70188E-05,7.53211E-07,0.127015255,1.739668764,0.000729325,-0.002052841,-0.025379413
name_5,B,1,0.000104742,1.21149E-05,1.46829E-08,-0.20080704,1.705091477,0.00027362,-0.00010329,0.003561213
name_5,B,2,0.000320636,3.73238E-05,1.51578E-07,-0.701103262,2.146246517,0.000707406,-0.000500116,0.010901623
name_5,B,3,0.000388427,4.53157E-05,2.10731E-07,-0.455612571,1.905298805,0.000951014,-0.000502321,0.013206531
name_5,B,4,-7.77471E-06,-9.94908E-07,3.78606E-10,-1.222680623,3.722133142,1.10782E-05,-6.16693E-05,-0.00026434
name_5,B,5,0.000163968,1.91652E-05,3.71733E-08,-0.359681626,1.851962387,0.000420055,-0.000198541,0.005574907
name_5,B,6,0.00019935,2.33515E-05,5.566E-08,-0.431573061,1.914121208,0.000501106,-0.000258214,0.006777892
name_5,B,7,7.15883E-05,8.25669E-06,6.97172E-09,-0.39297268,1.787188767,0.000171595,-8.25889E-05,0.002434001
name_5,B,8,-1.031E-05,-1.22962E-06,2.72337E-10,-1.227725047,3.388678495,4.54593E-06,-5.32664E-05,-0.00035054
name_5,B,9,0.000260281,3.0353E-05,9.95552E-08,-0.685957355,2.13286426,0.000578051,-0.000402345,0.008849541
name_5,B,10,-0.000108956,-1.27449E-05,1.62864E-08,-0.267322831,1.808491281,7.16652E-05,-0.000340601,-0.003704519
name_5,B,11,-0.000129543,-1.50938E-05,2.30619E-08,-0.352579969,1.824696086,6.98273E-05,-0.00041186,-0.004404469
name_5,B,12,-1.95621E-05,-2.2541E-06,1.31777E-09,-0.987433687,2.96132217,1.72959E-05,-0.000109481,-0.000665111
name_5,B,13,-0.000563009,-6.57718E-05,4.35518E-07,0.309354175,1.820443366,0.000652899,-0.001465392,-0.019142303
name_5,B,14,-0.000310158,-3.61984E-05,1.30475E-07,0.155250789,1.754584477,0.000313479,-0.000848604,-0.010545357
name_5,B,15,-0.000494577,-5.77181E-05,3.33412E-07,0.238344423,1.780664924,0.000536697,-0.001315781,-0.016815619
name_6,C,1,9.76634E-05,1.13604E-05,1.31495E-08,0.398153252,1.841881902,0.000313628,-4.68601E-05,0.003320557
name_6,C,2,-0.000269433,-3.15766E-05,1.01951E-07,-0.444769623,1.926958307,0.000136196,-0.00089218,-0.009160736
name_6,C,3,-8.83882E-05,-1.02721E-05,1.05208E-08,-0.165987606,1.729380354,5.97084E-05,-0.0002652,-0.0030052
name_6,C,4,1.02588E-05,1.17513E-06,1.23717E-09,-0.742995238,2.463150552,4.84568E-05,-7.31698E-05,0.000348799
name_6,C,5,-0.000118071,-1.3896E-05,1.93565E-08,-0.275635714,1.862299468,8.22799E-05,-0.000376669,-0.004014427
name_6,C,6,-0.000151502,-1.77507E-05,3.12653E-08,-0.058320313,1.768133063,0.000128987,-0.000448605,-0.005151062
name_6,C,7,8.73134E-05,1.0122E-05,1.30345E-08,-0.969371415,2.628497831,0.000192331,-0.000178619,0.002968655
name_6,C,8,-4.86894E-05,-5.69269E-06,6.21917E-09,-1.131099175,3.195269534,2.58658E-05,-0.000249288,-0.001655439
name_6,C,9,-0.000171604,-2.00221E-05,4.00747E-08,0.221593601,1.773140689,0.00018351,-0.00045871,-0.005834527
name_6,C,10,0.000146185,1.70707E-05,2.9759E-08,-0.42613561,1.895149065,0.000361726,-0.000187116,0.004970301
name_6,C,11,-5.79972E-06,-6.68456E-07,8.85135E-11,-1.11719651,3.258816649,3.25202E-06,-3.02776E-05,-0.00019719
name_6,C,12,-2.30406E-05,-2.66308E-06,1.41546E-09,1.054580774,3.015145711,6.9957E-05,-5.97482E-05,-0.000783379
name_6,C,13,0.000487402,5.68977E-05,3.22385E-07,0.157496794,1.75550569,0.001466237,-0.000361231,0.016571664
name_6,C,14,1.4903E-05,1.8784E-06,3.62461E-10,0.208687572,2.468502518,5.37403E-05,-2.18476E-05,0.000506703
name_6,C,15,7.64946E-05,9.13525E-06,8.35438E-09,-0.256155893,1.978042702,0.000216904,-9.91675E-05,0.002600816
name_6,B,1,0.000135357,1.56718E-05,2.56236E-08,-0.518924983,1.916247425,0.000312104,-0.000178273,0.004602121
name_6,B,2,-0.000207784,-2.43032E-05,5.91222E-08,0.245903321,1.800460169,0.000230676,-0.000555246,-0.00706465
name_6,B,3,-0.000104411,-1.22138E-05,1.48446E-08,0.147271802,1.769805188,0.000106697,-0.000288374,-0.00354996
name_6,B,4,-0.000128552,-1.50395E-05,2.60163E-08,0.862632268,2.407264866,0.000232675,-0.000277103,-0.004370778
name_6,B,5,-0.000138517,-1.6324E-05,2.65352E-08,0.172872673,1.833782558,0.00015236,-0.000389252,-0.004709577
name_6,B,6,-0.000356024,-4.16959E-05,1.73078E-07,-0.159751008,1.782917876,0.000269916,-0.001084697,-0.01210482
name_6,B,7,-4.10577E-05,-4.96407E-06,4.91184E-09,1.27042026,3.555296567,0.00014534,-0.000104348,-0.001395962
name_6,B,8,0.000103754,1.20264E-05,1.49585E-08,-0.478696878,1.891729633,0.000243543,-0.000133705,0.003527634
name_6,B,9,-0.000532726,-6.20309E-05,3.82326E-07,-0.089298379,1.7245567,0.000411789,-0.001563614,-0.018112699
name_6,B,10,1.68098E-05,1.89868E-06,4.4941E-10,0.801638753,2.228532662,6.14947E-05,-3.82193E-06,0.000571535
name_6,B,11,-0.000186565,-2.18302E-05,4.75219E-08,0.189745036,1.783704153,0.000198193,-0.000508905,-0.006343198
name_6,B,12,-0.000353759,-4.11944E-05,1.69041E-07,0.155429264,1.738464701,0.000352169,-0.000959786,-0.012027791
name_6,B,13,-0.000265721,-3.11203E-05,1.02485E-07,0.623992134,2.088187033,0.000398547,-0.000612449,-0.009034499
name_6,B,14,-0.000359713,-4.1939E-05,1.7477E-07,0.096943906,1.734942393,0.000341717,-0.000999837,-0.012230247
name_6,B,15,-0.000642481,-7.51717E-05,5.6242E-07,0.152432836,1.772816342,0.000660689,-0.001773461,-0.021844344
name_6,A,1,-0.000175619,-2.06758E-05,4.47813E-08,0.594574359,2.084881106,0.00026197,-0.000421682,-0.00597105
name_6,A,2,-0.000518886,-6.07588E-05,3.70117E-07,0.26883155,1.818986179,0.000592179,-0.001380417,-0.017642128
name_6,A,3,-0.000246345,-2.85503E-05,8.34987E-08,0.421784221,1.84190338,0.000301343,-0.000592651,-0.008375744
name_6,A,4,-0.000263823,-3.10471E-05,9.7376E-08,0.358226483,1.902019858,0.000332688,-0.000692446,-0.008969977
name_6,A,5,-0.000218735,-2.55766E-05,6.67785E-08,0.427333035,1.90252381,0.000281217,-0.000544856,-0.007436983
name_6,A,6,-0.000336401,-3.91208E-05,1.52575E-07,0.166038117,1.73259882,0.000336211,-0.000903586,-0.011437629
name_6,A,7,-0.000234737,-2.76578E-05,7.86038E-08,0.49046269,2.000272451,0.000327179,-0.000589518,-0.007981072
name_6,A,8,-0.000345105,-4.01313E-05,1.60394E-07,0.145386142,1.726235256,0.000337266,-0.000934564,-0.011733569
name_6,A,9,-0.000147799,-1.72343E-05,3.067E-08,0.490659474,1.937449762,0.000197562,-0.000353585,-0.005025167
name_6,A,10,-0.000239419,-2.79006E-05,7.72698E-08,0.047280798,1.725548306,0.000215957,-0.000674953,-0.008140255
name_6,A,11,-0.000191526,-2.24068E-05,5.04304E-08,0.288461365,1.822089588,0.000221182,-0.00050376,-0.0065119
name_6,A,12,-0.000204644,-2.3784E-05,5.74392E-08,0.369563859,1.822588238,0.000243087,-0.000509003,-0.006957889
name_6,A,13,-4.1552E-05,-5.45096E-06,8.81459E-09,1.416444475,4.194919667,0.000227974,-0.000127091,-0.001412768
name_6,A,14,-0.000240126,-2.8103E-05,7.92605E-08,0.279400813,1.820895874,0.000276127,-0.000634542,-0.008164296
name_6,A,15,-0.000390173,-4.57764E-05,2.16241E-07,0.505738958,1.98426897,0.000539382,-0.000956498,-0.013265894
name_8,A,1,-0.000267992,-3.14958E-05,9.90554E-08,-0.220054292,1.827571903,0.000198565,-0.000837181,-0.009111718
name_8,A,2,-0.000904181,-0.000105597,1.10618E-06,-0.000212416,1.740226661,0.000795473,-0.002602656,-0.030742153
name_8,A,3,-0.00037167,-4.30617E-05,1.8418E-07,0.003813865,1.681690277,0.000303032,-0.001044069,-0.01263679
name_8,A,4,-0.000678363,-7.94194E-05,6.26862E-07,0.11766442,1.770406118,0.000681273,-0.001896244,-0.023064341
name_8,A,5,-0.000536707,-6.2441E-05,3.92692E-07,0.301865684,1.788645858,0.000604053,-0.001378242,-0.018248033
name_8,A,6,3.48686E-05,4.37993E-06,3.69767E-09,-1.465737559,4.085540471,8.49941E-05,-0.000136496,0.001185533
name_8,A,7,-0.000795973,-9.38306E-05,8.79259E-07,-0.225052479,1.85285992,0.000608843,-0.002507869,-0.027063066
name_8,A,8,-0.000321505,-3.79137E-05,1.42818E-07,-0.116684281,1.827345289,0.000277561,-0.00098345,-0.010931187
name_8,A,9,0.000268465,3.12673E-05,9.82375E-08,-0.280770156,1.786820197,0.000696895,-0.000299637,0.009127794
name_8,A,10,-0.000656714,-7.73646E-05,5.96684E-07,-0.194682797,1.837724595,0.000516504,-0.002047942,-0.022328285
name_8,A,11,6.25364E-05,6.90881E-06,5.51279E-09,-0.57100092,1.843630265,0.00014126,-7.63439E-05,0.002126237
name_8,A,12,-0.000189103,-2.21876E-05,4.98259E-08,0.369353706,1.884138783,0.000235453,-0.000490113,-0.00642951
name_8,A,13,-0.00024249,-2.86546E-05,9.08606E-08,-0.808782436,2.359475076,4.84205E-05,-0.000912132,-0.008244671
name_8,A,14,3.21241E-05,3.87831E-06,4.98637E-09,-1.088963215,3.301601043,0.000102588,-0.000153228,0.00109222
name_8,A,15,-6.90894E-05,-8.18312E-06,6.65522E-09,0.120560955,1.864450538,7.59013E-05,-0.000200195,-0.00234904
name_8,C,1,-0.000206845,-2.43426E-05,6.39296E-08,0.714396178,2.218053772,0.000336764,-0.000467084,-0.007032722
name_8,C,2,-0.000831511,-9.72541E-05,9.56125E-07,0.351107382,1.852159549,0.001005012,-0.002139894,-0.028271378
name_8,C,3,-0.000223798,-2.6145E-05,6.9697E-08,0.416314718,1.883102051,0.000281653,-0.000560345,-0.007609123
name_8,C,4,-0.0005868,-6.86412E-05,4.75742E-07,0.34105725,1.846957728,0.000703701,-0.001517031,-0.01995121
name_8,C,5,-0.00023404,-2.73777E-05,8.20524E-08,0.739108423,2.217973487,0.000381242,-0.000514928,-0.007957356
name_8,C,6,8.76621E-05,1.00906E-05,1.11336E-08,0.666937029,2.049912736,0.000303452,-1.73861E-05,0.002980511
name_8,C,7,-0.000757779,-8.84984E-05,7.80899E-07,0.182688669,1.766613289,0.000787314,-0.002059947,-0.025764479
name_8,C,8,-0.000316387,-3.66847E-05,1.34233E-07,-0.163110196,1.711036998,0.000209653,-0.000941089,-0.01075717
name_8,C,9,0.000229673,2.67658E-05,7.17325E-08,0.240556523,1.77103892,0.000706281,-0.000148967,0.007808869
name_8,C,10,-0.000597764,-6.95394E-05,4.80456E-07,-0.081412237,1.716974351,0.000459995,-0.00174747,-0.020323971
name_8,C,11,-0.000111118,-1.28217E-05,1.63818E-08,-0.114255715,1.66546538,7.40032E-05,-0.000321077,-0.003778015
name_8,C,12,0.000189727,2.21942E-05,5.08109E-08,0.494837998,1.951974897,0.000634933,-8.34263E-05,0.00645071
name_8,C,13,-0.000511513,-5.95391E-05,3.51871E-07,-0.033658206,1.716245029,0.000418884,-0.001474876,-0.017391441
name_8,C,14,-0.000260948,-3.03693E-05,9.39568E-08,0.398703262,1.848300867,0.000318538,-0.000646663,-0.008872237
name_8,C,15,-0.000313541,-3.66129E-05,1.34686E-07,0.287118092,1.807116376,0.000356684,-0.000820834,-0.010660398
name_8,B,1,-0.000377774,-4.4216E-05,2.05874E-07,0.600406312,2.055495682,0.000553263,-0.000879525,-0.012844307
name_8,B,2,-0.000996903,-0.000116876,1.38436E-06,0.378670163,1.8852335,0.00124683,-0.002562684,-0.033894712
name_8,B,3,-0.000169536,-1.99787E-05,4.05283E-08,0.404774907,1.938341792,0.00022206,-0.000440278,-0.005764223
name_8,B,4,-0.000700108,-8.20156E-05,6.73207E-07,0.247216158,1.812219011,0.000785351,-0.001881063,-0.023803667
name_8,B,5,-0.000136328,-1.62897E-05,3.71916E-08,1.191250723,3.15220387,0.00035049,-0.000298515,-0.004635156
name_8,B,6,1.28591E-05,1.82855E-06,8.81543E-09,-0.725178373,2.490917238,0.000116333,-0.000214815,0.000437209
name_8,B,7,-0.001100948,-0.000128734,1.64508E-06,0.070565533,1.753033834,0.001043364,-0.003115431,-0.037432239
name_8,B,8,6.02239E-05,7.09936E-06,1.47279E-08,-1.054160812,3.169914871,0.000181462,-0.000251651,0.002047612
name_8,B,9,0.000583922,6.85586E-05,4.74344E-07,-0.344324465,1.875300055,0.001529772,-0.00071691,0.019853361
name_8,B,10,-0.000801912,-9.36889E-05,8.71101E-07,-0.053161233,1.74543986,0.000667986,-0.002350432,-0.02726501
name_8,B,11,7.56156E-06,1.22003E-06,2.77381E-09,-0.870794727,2.957033145,6.47499E-05,-0.000130375,0.000257093
name_8,B,12,6.18481E-05,7.67492E-06,5.95964E-09,-0.156002079,2.320878994,0.000203156,-9.43001E-05,0.002102835
name_8,B,13,-0.000828391,-9.68144E-05,9.30092E-07,0.048145426,1.747260478,0.000766633,-0.002355909,-0.028165289
name_8,B,14,-0.000480787,-5.6224E-05,3.21842E-07,0.40847406,1.88674351,0.000606661,-0.001210258,-0.016346746
name_8,B,15,-0.000401984,-4.69824E-05,2.19692E-07,0.149161847,1.763710229,0.000408538,-0.001107097,-0.013667464
name_7,A,1,-8.23916E-05,-9.87683E-06,9.98722E-09,0.486571402,2.126771163,0.000123988,-0.000222445,-0.002801315
name_7,A,2,-0.000160022,-1.87524E-05,3.51092E-08,-0.213035861,1.804202227,0.000114462,-0.000496132,-0.005440758
name_7,A,3,-0.000113989,-1.33141E-05,1.95124E-08,-0.749756093,2.232075566,2.21484E-05,-0.00041533,-0.003875625
name_7,A,4,-0.000121193,-1.41651E-05,2.13008E-08,-0.630281026,2.086539143,3.37868E-05,-0.000424149,-0.004120546
name_7,A,5,-0.000275458,-3.21075E-05,1.0455E-07,-0.369272764,1.841314363,0.000143112,-0.000883235,-0.009365579
name_7,A,6,-0.000186726,-2.18016E-05,4.78746E-08,-0.312619192,1.820358108,0.000110194,-0.000590813,-0.006348681
name_7,A,7,-0.000386493,-4.50282E-05,2.02337E-07,-0.190592751,1.752839343,0.000264349,-0.001172512,-0.013140759
name_7,A,8,-0.000182412,-2.13657E-05,4.59709E-08,-0.31857756,1.846252385,0.000112196,-0.000582307,-0.006202025
name_7,A,9,-0.000194968,-2.27717E-05,5.22722E-08,-0.321477541,1.826891378,0.000114289,-0.000618722,-0.006628924
name_7,A,10,-0.000368066,-4.30419E-05,1.84648E-07,0.179366559,1.776102031,0.000385972,-0.001005232,-0.012514259
name_7,A,11,-0.000268975,-3.14464E-05,9.81351E-08,-0.055949372,1.75091115,0.000225277,-0.000790334,-0.009145166
name_7,A,12,-0.000170506,-1.99551E-05,4.11943E-08,-0.512952602,1.977208952,7.07739E-05,-0.00057609,-0.005797214
name_7,A,13,-0.000360916,-4.19839E-05,1.75499E-07,-0.141268742,1.72781116,0.000258191,-0.001074262,-0.012271133
name_7,A,14,-0.000210311,-2.45362E-05,6.20248E-08,-0.479757872,1.928270254,8.78093E-05,-0.000699033,-0.00715056
name_7,A,15,-8.92728E-05,-1.03978E-05,1.09506E-08,-0.356444979,1.830178041,4.65419E-05,-0.000285041,-0.003035276
name_7,B,1,-0.000957338,-0.00011131,1.23253E-06,-0.117966888,1.719150614,0.000701029,-0.00282544,-0.032549506
name_7,B,2,-0.000415545,-4.84931E-05,2.47033E-07,0.579811343,2.020202358,0.000593872,-0.000961993,-0.014128527
name_7,B,3,-0.000313843,-3.66079E-05,1.33747E-07,0.195297707,1.762077261,0.000327474,-0.00084535,-0.010670655
name_7,B,4,-0.000351748,-4.1047E-05,1.69325E-07,0.287901162,1.801644845,0.000397688,-0.000919296,-0.011959447
name_7,B,5,-0.000476236,-5.55759E-05,3.14519E-07,0.403931123,1.86951747,0.000592116,-0.001191222,-0.016192034
name_7,B,6,-0.000387805,-4.53415E-05,2.06988E-07,0.312090221,1.828223591,0.000453454,-0.001011176,-0.013185359
name_7,B,7,-0.00074156,-8.66144E-05,7.64818E-07,0.414839048,1.883198459,0.000934701,-0.001852712,-0.025213055
name_7,B,8,-0.000619694,-7.21454E-05,5.16596E-07,0.025498136,1.717050017,0.000540592,-0.001755519,-0.02106958
name_7,B,9,-0.000614964,-7.16261E-05,5.10927E-07,0.151636397,1.73849862,0.000609363,-0.001673622,-0.02090876
name_7,B,10,-0.001120264,-0.000130554,1.70384E-06,0.218059551,1.762507806,0.001181759,-0.002986858,-0.038088981
name_7,B,11,-0.000764884,-8.905E-05,7.94925E-07,0.251994148,1.769109422,0.000826354,-0.002007481,-0.026006068
name_7,B,12,-0.000420839,-4.92201E-05,2.53274E-07,0.565057802,2.017827753,0.000599598,-0.000992028,-0.014308517
name_7,B,13,-0.000746109,-8.68235E-05,7.53286E-07,0.207817974,1.748372982,0.0007716,-0.001986649,-0.025367692
name_7,B,14,-0.000492897,-5.74371E-05,3.29121E-07,0.186097873,1.751386351,0.000505184,-0.001328656,-0.016758496
name_7,B,15,-0.000280508,-3.24893E-05,1.12905E-07,-0.623307843,2.031638273,6.62428E-05,-0.000966268,-0.009537274
name_7,C,1,4.37579E-05,5.04443E-06,5.67108E-09,-1.04329396,3.054771175,0.000118077,-0.000145046,0.001487769
name_7,C,2,-3.70798E-05,-4.54097E-06,1.54136E-08,0.870891495,2.82339757,0.000276277,-0.000168774,-0.001260713
name_7,C,3,-0.00016262,-1.90302E-05,3.61231E-08,0.194652803,1.786880855,0.000174247,-0.000442211,-0.005529076
name_7,C,4,-0.000214304,-2.51442E-05,6.34651E-08,0.287594376,1.842273943,0.000251334,-0.000570681,-0.007286338
name_7,C,5,-0.00032771,-3.84268E-05,1.50173E-07,0.407203609,1.906228845,0.000420099,-0.000833403,-0.011142139
name_7,C,6,-0.000315448,-3.69955E-05,1.37593E-07,0.303206409,1.847109849,0.000373966,-0.00083357,-0.010725224
name_7,C,7,-0.000477313,-5.59373E-05,3.29307E-07,0.602533451,2.069386363,0.000706309,-0.001114775,-0.016228655
name_7,C,8,-0.00035018,-4.08535E-05,1.65865E-07,0.104439367,1.741010537,0.000337136,-0.00097252,-0.011906122
name_7,C,9,-0.000329872,-3.85747E-05,1.51021E-07,0.384276305,1.871348421,0.000408933,-0.000837763,-0.011215638
name_7,C,10,-0.000499745,-5.85315E-05,3.53971E-07,0.507971798,1.97476116,0.000686465,-0.001215398,-0.016991338
name_7,C,11,-0.000397792,-4.65188E-05,2.23654E-07,0.505058772,1.962307935,0.000541356,-0.000962188,-0.013524919
name_7,C,12,-0.000287022,-3.37963E-05,1.17799E-07,0.511840868,2.01475958,0.000405632,-0.000712393,-0.009758745
name_7,C,13,-0.00045556,-5.31791E-05,2.92418E-07,0.502120364,1.94865994,0.000613662,-0.001094676,-0.015489043
name_7,C,14,-0.000301906,-3.53403E-05,1.2392E-07,-0.050132667,1.759788128,0.000258025,-0.000888111,-0.01026482
name_7,C,15,-9.38015E-05,-1.08297E-05,1.48503E-08,-0.940662008,2.550031457,1.89706E-05,-0.000372809,-0.003189252
name_9,B,1,-0.000444338,-5.2165E-05,2.70235E-07,0.09877961,1.788955442,0.000449666,-0.001259277,-0.01510748
name_9,B,2,-0.000373757,-4.4069E-05,1.92646E-07,0.043910812,1.817163356,0.00037294,-0.001091565,-0.012707729
name_9,B,3,-0.000226882,-2.67491E-05,7.93256E-08,-0.806623671,2.352637935,4.32658E-05,-0.000852122,-0.007713971
name_9,B,4,-0.000382674,-4.51218E-05,2.44268E-07,-0.973946016,2.631092999,5.26635E-05,-0.001537942,-0.013010913
name_9,B,5,-0.0003257,-3.86106E-05,1.48189E-07,0.124020676,1.872059527,0.000360509,-0.000945652,-0.011073803
name_9,B,6,-0.000453995,-5.34176E-05,2.88477E-07,-0.364952368,1.904473684,0.000280265,-0.001482611,-0.015435839
name_9,B,7,-0.00050391,-5.89269E-05,3.85903E-07,-0.78067343,2.277864834,9.05468E-05,-0.001857917,-0.017132956
name_9,B,8,-0.000573549,-6.77261E-05,4.5607E-07,-0.137918524,1.842498661,0.000489456,-0.001772277,-0.019500651
name_9,B,9,-0.000518625,-6.10851E-05,4.02443E-07,-0.716188588,2.224844122,0.000137939,-0.001884988,-0.017633261
name_9,B,10,-0.000662267,-7.75677E-05,6.13448E-07,-0.423128697,1.90893354,0.000342534,-0.002178301,-0.022517077
name_9,B,11,-0.000236389,-2.82817E-05,8.05686E-08,-0.336073782,2.024771183,0.000189122,-0.000795792,-0.00803722
name_9,B,12,4.84143E-05,5.31449E-06,1.29116E-08,-0.749696423,2.473548829,0.000171691,-0.000217507,0.001646086
name_9,B,13,-0.000321385,-3.85099E-05,1.57554E-07,-0.70381382,2.323052423,0.000150891,-0.001196129,-0.010927103
name_9,B,14,-3.55648E-05,-4.65292E-06,1.30009E-08,-1.07650255,3.396927927,8.01E-05,-0.000344761,-0.001209203
name_9,B,15,-0.000512133,-6.03237E-05,3.68499E-07,0.38145175,1.920704104,0.000658225,-0.001339658,-0.017412535
name_9,A,1,-3.47757E-05,-4.22235E-06,1.90871E-09,0.759670944,2.479420057,6.47398E-05,-8.89493E-05,-0.001182374
name_9,A,2,0.000129357,1.52399E-05,3.27288E-08,1.127615431,3.007833246,0.000576518,-2.95252E-05,0.004398149
name_9,A,3,4.80932E-05,5.94464E-06,6.01633E-09,1.397088261,3.797163061,0.000259829,-1.54599E-05,0.00163517
name_9,A,4,-0.000683456,-7.96278E-05,6.33934E-07,0.219405781,1.761143362,0.000720499,-0.001820015,-0.023237503
name_9,A,5,-0.000160098,-1.88717E-05,4.3103E-08,0.987078891,2.661663709,0.000327922,-0.000342909,-0.005443338
name_9,A,6,0.000133333,1.55281E-05,3.16459E-08,1.020322819,2.734698687,0.000554639,-2.73051E-05,0.004533335
name_9,A,7,-0.000532208,-6.1774E-05,3.84183E-07,0.290027508,1.765038118,0.000581568,-0.001363236,-0.018095076
name_9,A,8,-0.000154751,-1.84202E-05,5.46637E-08,1.222693933,3.316004485,0.00044826,-0.000359875,-0.005261528
name_9,A,9,0.000149465,1.72558E-05,3.06093E-08,-0.4293329,1.824732438,0.000353182,-0.000180403,0.005081796
name_9,A,10,-0.000442941,-5.15509E-05,2.68383E-07,0.328644714,1.803761164,0.00050917,-0.001129379,-0.015059998
name_9,A,11,-5.81514E-05,-6.99508E-06,5.73315E-09,1.011325662,2.76148588,0.000123432,-0.000124284,-0.001977149
name_9,A,12,0.000276023,3.23846E-05,1.08106E-07,-0.499415477,1.980392814,0.000678286,-0.000380423,0.009384768
name_9,A,13,-0.000590634,-6.915E-05,4.84532E-07,0.374180208,1.871727094,0.000729332,-0.001514615,-0.020081554
name_9,A,14,6.93315E-05,8.22295E-06,6.95856E-09,0.511402605,2.054127004,0.000238653,-4.01194E-05,0.002357272
name_9,A,15,-0.000126553,-1.48205E-05,3.8123E-08,1.14354916,3.166196119,0.000366866,-0.000307061,-0.00430281
name_9,C,1,-0.000438806,-5.14559E-05,2.62711E-07,-0.057939523,1.774286069,0.000378295,-0.001300607,-0.014919401
name_9,C,2,-0.000183203,-2.18238E-05,5.20513E-08,-0.796689284,2.385468811,5.63965E-05,-0.000693087,-0.00622889
name_9,C,3,-0.000394369,-4.5964E-05,2.3768E-07,-0.797008398,2.289351967,6.74727E-05,-0.001458599,-0.013408561
name_9,C,4,-0.000956473,-0.000111321,1.29334E-06,-0.540286817,1.965595391,0.000317305,-0.00322364,-0.032520082
name_9,C,5,-0.000110455,-1.34138E-05,1.80547E-08,-0.224966145,2.118525442,0.000113677,-0.00037514,-0.003755475
name_9,C,6,-0.000331708,-3.90735E-05,1.51406E-07,0.012192657,1.807808223,0.000318729,-0.000975566,-0.011278083
name_9,C,7,-0.000988279,-0.000115018,1.35193E-06,-0.420799785,1.865158711,0.000450387,-0.003207203,-0.033601482
name_9,C,8,-0.000323317,-3.83337E-05,1.55552E-07,0.662576707,2.203772005,0.000520824,-0.000776653,-0.010992785
name_9,C,9,0.00019994,2.28647E-05,5.23894E-08,0.161495052,1.617863204,0.000570287,-0.000111413,0.006797947
name_9,C,10,-0.000915244,-0.000106832,1.14316E-06,-0.249347349,1.787689808,0.000593937,-0.002837583,-0.031118305
name_9,C,11,-0.000118432,-1.42631E-05,2.85232E-08,-1.230660071,3.256981947,2.03267E-05,-0.000551333,-0.004026696
name_9,C,12,-3.88074E-05,-4.47607E-06,3.60964E-08,-0.661458668,2.267200807,0.000171517,-0.00047179,-0.001319451
name_9,C,13,-0.00057263,-6.72191E-05,4.90089E-07,-0.723665126,2.217152722,0.000131305,-0.002077535,-0.019469423
name_9,C,14,-0.000239192,-2.81417E-05,9.20538E-08,-0.908907762,2.507307868,3.49908E-05,-0.000933191,-0.008132523
name_9,C,15,-0.000310691,-3.64015E-05,1.33954E-07,0.355659439,1.867358037,0.000380784,-0.00080336,-0.010563493
name_10,B,1,0.000165625,1.92484E-05,3.67884E-08,-0.040291784,1.705146185,0.000463228,-0.000145433,0.00563124
name_10,B,2,2.09481E-05,2.38536E-06,5.85328E-10,0.366709961,1.710704768,6.42304E-05,-6.96126E-06,0.000712236
name_10,B,3,5.07738E-06,4.3734E-07,1.74786E-10,0.338485922,1.734701481,2.99845E-05,-1.11104E-05,0.000172631
name_10,B,4,-1.52331E-05,-1.95926E-06,4.36556E-10,1.011312808,3.258683707,3.86257E-05,-4.47656E-05,-0.000517924
name_10,B,5,9.06006E-05,1.0412E-05,1.09264E-08,-0.25954932,1.688878235,0.00022537,-9.0553E-05,0.00308042
name_10,B,6,6.10483E-05,7.04561E-06,4.94856E-09,0.1253332,1.667842623,0.000176705,-4.04146E-05,0.002075643
name_10,B,7,0.000165361,1.92357E-05,3.67465E-08,-0.06073156,1.713727961,0.000460654,-0.000149532,0.005622274
name_10,B,8,5.24156E-06,4.82391E-07,3.57594E-11,0.036541208,1.500439569,1.36871E-05,-2.89587E-06,0.000178213
name_10,B,9,3.92377E-06,3.41719E-07,4.33308E-11,0.089666869,1.485697907,1.41606E-05,-4.79759E-06,0.000133408
name_10,B,10,0.000222426,2.59069E-05,6.74973E-08,-0.289787963,1.788919968,0.000576724,-0.000248684,0.007562501
name_10,B,11,9.31703E-05,1.07329E-05,1.19432E-08,-0.46728194,1.840279888,0.000215708,-0.000114372,0.003167791
name_10,B,12,5.48931E-05,6.25931E-06,4.0437E-09,0.397497261,1.725231843,0.000168975,-1.7114E-05,0.001866366
name_10,B,13,-0.000153973,-1.80643E-05,3.23687E-08,-0.038640824,1.776888647,0.000135151,-0.000455197,-0.005235091
name_10,B,14,-5.00919E-06,-7.5892E-07,1.27659E-10,1.895067989,5.617201631,3.09756E-05,-1.33348E-05,-0.000170313
name_10,B,15,0.000130104,1.50452E-05,2.25081E-08,0.064370742,1.671650517,0.000371211,-9.61332E-05,0.004423523
name_10,C,1,0.00058572,6.83533E-05,4.6891E-07,0.272855969,1.794739269,0.001825196,-0.000368115,0.019914482
name_10,C,2,0.000202513,2.35135E-05,5.63729E-08,0.397203744,1.831974961,0.000648702,-9.24495E-05,0.006885436
name_10,C,3,0.000118909,1.38089E-05,1.92392E-08,0.312922899,1.778794224,0.000370364,-6.51412E-05,0.00404289
name_10,C,4,0.000251125,2.91783E-05,8.53412E-08,0.244991154,1.752293944,0.000768287,-0.000153765,0.00853824
name_10,C,5,0.000279137,3.2394E-05,1.05525E-07,0.277447086,1.758157436,0.000859884,-0.000159378,0.009490654
name_10,C,6,0.000297546,3.45878E-05,1.20163E-07,0.270411219,1.766290715,0.000918198,-0.000176598,0.010116547
name_10,C,7,0.000332781,3.85348E-05,1.50072E-07,0.317947481,1.765182793,0.001033656,-0.000169232,0.011314548
name_10,C,8,0.00019595,2.26745E-05,5.37818E-08,0.529087645,1.921355652,0.000651072,-5.77267E-05,0.006662301
name_10,C,9,7.72751E-05,9.03636E-06,8.96179E-09,0.745612981,2.228587476,0.000281252,-1.52583E-05,0.002627354
name_10,C,10,0.00032073,3.72624E-05,1.41094E-07,0.374388314,1.81989402,0.001020853,-0.000156106,0.010904808
name_10,C,11,0.000266175,3.10142E-05,9.61836E-08,0.221784762,1.763164549,0.000814207,-0.000175546,0.00904996
name_10,C,12,0.000159042,1.85821E-05,3.62391E-08,0.579675127,2.025044186,0.000546016,-5.27684E-05,0.005407428
name_10,C,13,0.000352802,4.10547E-05,1.69336E-07,0.276292405,1.777326082,0.001094358,-0.000209927,0.011995268
name_10,C,14,0.000434695,5.05868E-05,2.56814E-07,0.264010766,1.771787938,0.001343159,-0.000264281,0.014779617
name_10,C,15,0.000235273,2.73625E-05,7.63154E-08,0.400512138,1.844940828,0.000757027,-0.000110522,0.007999284
name_10,A,1,7.99644E-05,9.35874E-06,9.98456E-09,0.843413377,2.364753127,0.000301375,-1.20867E-05,0.002718789
name_10,A,2,-2.56214E-05,-3.01574E-06,9.03257E-10,-0.100243498,1.815697158,2.13091E-05,-7.85138E-05,-0.000871129
name_10,A,3,-0.000114714,-1.36498E-05,1.90863E-08,0.48648742,2.068746058,0.000166878,-0.00030042,-0.003900262
name_10,A,4,-0.000144391,-1.6947E-05,2.88032E-08,0.276966954,1.837881841,0.000167424,-0.000387328,-0.004909289
name_10,A,5,-0.000133583,-1.57088E-05,2.48417E-08,0.322431479,1.873491324,0.000162192,-0.000355388,-0.004541826
name_10,A,6,-7.59054E-05,-8.85826E-06,8.60424E-09,0.733648425,2.190599619,0.000121561,-0.000166246,-0.002580784
name_10,A,7,-0.000190917,-2.22979E-05,5.1062E-08,0.463590958,1.915156693,0.000248619,-0.000469038,-0.006491172
name_10,A,8,-4.53185E-05,-5.1998E-06,3.35987E-09,0.88426462,2.406788783,8.30787E-05,-9.96338E-05,-0.00154083
name_10,A,9,-5.14431E-05,-5.94454E-06,3.51229E-09,0.021654475,1.663759459,4.11619E-05,-0.000143105,-0.001749064
name_10,A,10,-0.000140378,-1.63239E-05,2.81701E-08,0.59385829,2.008257474,0.0001988,-0.000319444,-0.004772856
name_10,A,11,-7.42146E-05,-8.62129E-06,7.7244E-09,0.51239353,1.922276511,9.78886E-05,-0.00017448,-0.002523296
name_10,A,12,-8.7955E-05,-1.02644E-05,1.05478E-08,0.242504787,1.78033572,9.51948E-05,-0.000234373,-0.00299047
name_10,A,13,-0.00011432,-1.33228E-05,1.82902E-08,0.477083571,1.912193042,0.000148912,-0.000276683,-0.003886894
name_10,A,14,-0.000162708,-1.89814E-05,3.61725E-08,0.27608252,1.792912406,0.000181277,-0.000427311,-0.005532064
name_10,A,15,-0.000174015,-2.03583E-05,4.16149E-08,0.284227926,1.817563008,0.000198997,-0.000460084,-0.005916505
name_11,C,1,-0.001390994,-0.000161611,2.91837E-06,-0.766406982,2.22766201,0.000244029,-0.005062557,-0.047293782
name_11,C,2,,,,,,,,
name_11,C,3,-0.000265597,-3.07347E-05,1.09363E-07,-0.824587102,2.312109634,4.5263E-05,-0.000988941,-0.009030284
name_11,C,4,-0.000380121,-4.42391E-05,1.94275E-07,-0.037679768,1.715315136,0.00031078,-0.001095693,-0.012924105
name_11,C,5,-0.000506937,-5.89999E-05,3.45912E-07,-0.090540177,1.721311339,0.000389871,-0.00148631,-0.017235857
name_11,C,6,-0.000323671,-3.75581E-05,1.41276E-07,-0.229359406,1.737333654,0.000199107,-0.000982716,-0.011004812
name_11,C,7,-0.000588297,-6.86414E-05,4.68212E-07,0.103157752,1.741972217,0.000567225,-0.001634457,-0.020002101
name_11,C,8,-0.00042279,-4.92379E-05,2.40679E-07,-0.050366718,1.721159203,0.000343207,-0.001225874,-0.014374874
name_11,C,9,-0.000364348,-4.2349E-05,1.78568E-07,-0.138433555,1.720666239,0.00026049,-0.001079852,-0.012387842
name_11,C,10,-0.000604335,-7.05732E-05,4.96245E-07,0.169351777,1.763140935,0.00062251,-0.001647754,-0.020547397
name_11,C,11,-0.000486693,-5.67353E-05,3.19738E-07,0.084286802,1.732226176,0.000457072,-0.001357024,-0.016547559
name_11,C,12,-0.000249566,-2.89418E-05,9.04334E-08,-0.660568579,2.077660668,5.4179E-05,-0.000871261,-0.008485238
name_11,C,13,-0.000306924,-3.58837E-05,1.27781E-07,0.054513328,1.750975253,0.000287666,-0.000871398,-0.010435401
name_11,C,14,-0.000340248,-3.96391E-05,1.56379E-07,-0.138030885,1.737406098,0.000250237,-0.001014569,-0.01156842
name_11,C,15,-0.000221756,-2.58687E-05,7.00836E-08,-0.564492189,1.999405599,7.39008E-05,-0.000755225,-0.007539721
name_11,A,1,0.000160264,1.91801E-05,6.0969E-08,-1.241810295,3.364397614,0.000376408,-0.000479395,0.005448986
name_11,A,2,,,,,,,,
name_11,A,3,-0.000108072,-1.24607E-05,1.65943E-08,-0.601043314,1.977215826,2.4911E-05,-0.000365861,-0.00367446
name_11,A,4,-0.000368994,-4.29265E-05,1.84817E-07,-0.256173365,1.765855585,0.000226473,-0.001136331,-0.0125458
name_11,A,5,-0.000488078,-5.6772E-05,3.20238E-07,0.081893557,1.715657969,0.000448496,-0.001352788,-0.016594654
name_11,A,6,-0.000327668,-3.80058E-05,1.43552E-07,0.070485938,1.693792298,0.000290113,-0.00090372,-0.011140721
name_11,A,7,-0.000613641,-7.15014E-05,5.10036E-07,0.185861683,1.751371088,0.000630096,-0.001652204,-0.020863781
name_11,A,8,-0.000428046,-4.9732E-05,2.45699E-07,0.066231299,1.705305055,0.000383034,-0.001188437,-0.014553568
name_11,A,9,-0.000457211,-5.30775E-05,2.81152E-07,0.17820487,1.722437608,0.000453016,-0.001219316,-0.015545181
name_11,A,10,-0.000501735,-5.8423E-05,3.39097E-07,0.084186447,1.723741403,0.000466246,-0.001394302,-0.017059007
name_11,A,11,-0.0003299,-3.83294E-05,1.46086E-07,0.101788474,1.710331146,0.000305833,-0.000905374,-0.011216604
name_11,A,12,-0.00022702,-2.63275E-05,6.98451E-08,-0.295984736,1.763733922,0.000123662,-0.000702933,-0.007718673
name_11,A,13,-0.000294812,-3.42776E-05,1.16627E-07,-0.005324561,1.707099693,0.000246484,-0.000839503,-0.010023622
name_11,A,14,-0.000174645,-2.02992E-05,4.28873E-08,-0.521917253,1.940028531,5.87898E-05,-0.000583589,-0.005937946
name_11,A,15,-7.88286E-05,-9.15749E-06,1.049E-08,-0.958865391,2.585259189,1.44067E-05,-0.000315197,-0.002680172
name_11,B,1,-0.000789977,-9.21348E-05,8.42457E-07,-0.041305758,1.731573408,0.00065499,-0.002296211,-0.026859233
name_11,B,2,-0.006579097,-0.000769709,5.95115E-05,0.288835289,1.819894104,0.007556621,-0.017343979,-0.223689299
name_11,B,3,-0.001191152,-0.000138784,1.91728E-06,0.142246846,1.738899731,0.001173923,-0.003255405,-0.040499179
name_11,B,4,-0.000559572,-6.5304E-05,4.23181E-07,0.037116688,1.735903307,0.00050716,-0.001589045,-0.019025455
name_11,B,5,-0.001052927,-0.000122789,1.49817E-06,0.098835038,1.736939023,0.001003907,-0.002927059,-0.035799535
name_11,B,6,-0.00100869,-0.000117497,1.37242E-06,0.107726607,1.729952917,0.000960127,-0.002786569,-0.034295466
name_11,B,7,-0.001026271,-0.000119915,1.4462E-06,0.299251022,1.817205905,0.001183003,-0.002681598,-0.034893227
name_11,B,8,-0.000728143,-8.49795E-05,7.18442E-07,0.135288418,1.749689773,0.000722722,-0.002005156,-0.024756858
name_11,B,9,-0.000885518,-0.000103263,1.05846E-06,0.053460347,1.731132113,0.000807922,-0.002497692,-0.030107601
name_11,B,10,-0.001044537,-0.000122059,1.4921E-06,0.250853909,1.795658398,0.001157253,-0.002777559,-0.035514255
name_11,B,11,-0.000690316,-8.07605E-05,6.51623E-07,0.219782512,1.792399496,0.000751326,-0.001862868,-0.023470754
name_11,B,12,-0.000827958,-9.65297E-05,9.24546E-07,0.000842873,1.727304813,0.000714776,-0.002373051,-0.028150556
name_11,B,13,-0.000682757,-7.97125E-05,6.31651E-07,0.116199493,1.748830019,0.000668905,-0.001893406,-0.023213742
name_11,B,14,-0.000392017,-4.57411E-05,2.09494E-07,-0.243996341,1.782947398,0.000254906,-0.001212549,-0.013328578
name_11,B,15,-0.000591961,-6.90661E-05,4.74302E-07,-0.120197913,1.745107879,0.00045064,-0.001764504,-0.020126663
name_12,C,1,0.000316269,3.72852E-05,1.55934E-07,0.838059788,2.401385939,0.00120224,-5.46806E-05,0.010753146
name_12,C,2,0.000471037,5.6156E-05,4.3772E-07,1.182420064,3.145477738,0.002143553,-8.96983E-05,0.016015267
name_12,C,3,0.000199476,2.31713E-05,6.03492E-08,-0.779711762,2.24647374,0.000432968,-0.000330657,0.006782193
name_12,C,4,0.000100297,1.16553E-05,1.40675E-08,0.494932807,1.915318446,0.000332233,-3.6265E-05,0.003410098
name_12,C,5,2.19969E-05,2.30333E-06,7.32973E-10,-0.447111415,1.759150669,5.35248E-05,-2.4971E-05,0.000747894
name_12,C,6,2.73227E-07,1.74327E-07,2.4363E-10,0.788433347,2.821404949,4.09607E-05,-1.71852E-05,9.28972E-06
name_12,C,7,-7.26347E-05,-8.49247E-06,7.90902E-09,-0.742217675,2.218269337,1.41838E-05,-0.000263605,-0.002469581
name_12,C,8,0.000142376,1.70192E-05,2.88382E-08,-0.138934188,1.94688832,0.000421722,-0.000169127,0.004840798
name_12,C,9,-9.39872E-05,-1.10227E-05,1.20496E-08,0.00916545,1.772616119,8.66277E-05,-0.000273159,-0.003195563
name_12,C,10,-0.000391574,-4.69171E-05,2.21587E-07,0.326085565,2.030538854,0.000534271,-0.001106891,-0.013313524
name_12,C,11,0.000392241,4.63124E-05,2.13773E-07,-0.190878092,1.854016395,0.001103124,-0.000443262,0.013336206
name_12,C,12,-1.37999E-05,-1.6721E-06,4.05112E-10,-1.28588357,3.431341933,2.57549E-06,-6.66429E-05,-0.000469197
name_12,C,13,-0.000325728,-3.90283E-05,1.52146E-07,-0.206064577,1.984352611,0.000302579,-0.001062466,-0.011074749
name_12,C,14,-0.000187947,-2.22143E-05,4.90582E-08,0.132559394,1.849048663,0.000205341,-0.000538755,-0.006390188
name_12,C,15,0.000269144,3.14191E-05,9.94591E-08,0.315140855,1.821232513,0.000852406,-0.000157332,0.00915089
name_12,B,1,8.82462E-05,1.0348E-05,1.12507E-08,0.597376836,2.073394572,0.000307558,-3.01711E-05,0.003000372
name_12,B,2,-0.000105798,-1.20557E-05,1.55572E-08,0.548369795,1.8976829,0.000138123,-0.000238466,-0.003597144
name_12,B,3,1.07736E-05,9.55575E-07,3.93313E-09,-0.537885248,1.981851574,8.24224E-05,-0.000112065,0.000366302
name_12,B,4,-9.514E-05,-1.11226E-05,1.22865E-08,0.09067616,1.75496782,9.20598E-05,-0.000267291,-0.00323476
name_12,B,5,-0.000124702,-1.46342E-05,2.12661E-08,0.095459099,1.784792975,0.0001248,-0.000354064,-0.004239876
name_12,B,6,5.29485E-05,6.03554E-06,5.73195E-09,-0.989784763,2.757206656,0.000126156,-0.000126009,0.001800249
name_12,B,7,-3.98135E-05,-4.83958E-06,3.79919E-09,-1.328167785,3.594703873,1.16497E-05,-0.000204487,-0.001353659
name_12,B,8,0.000186912,2.16965E-05,5.43004E-08,-0.832797166,2.337617669,0.000405145,-0.000326515,0.006355011
name_12,B,9,0.000158335,1.82764E-05,3.34082E-08,-0.186949066,1.688092105,0.000411582,-0.000152534,0.00538338
name_12,B,10,-0.000540399,-6.32195E-05,4.10253E-07,0.46545529,1.931826689,0.000714554,-0.001331692,-0.018373577
name_12,B,11,0.000695874,8.06366E-05,6.6773E-07,-0.437177573,1.851134395,0.001665772,-0.000859706,0.023659716
name_12,B,12,-8.80968E-06,-1.15781E-06,2.07942E-10,1.550011554,4.181135122,3.20268E-05,-1.97522E-05,-0.000299529
name_12,B,13,-0.000571992,-6.67475E-05,4.43607E-07,0.1538447,1.753190365,0.000576839,-0.001564909,-0.019447735
name_12,B,14,-0.000109013,-1.27813E-05,1.65347E-08,-0.368093407,1.882070626,6.28827E-05,-0.000353969,-0.00370645
name_12,B,15,0.000232478,2.70654E-05,7.31394E-08,-0.196501406,1.748826052,0.000622124,-0.000239552,0.007904268
name_12,A,1,-3.83916E-05,-4.46767E-06,3.192E-09,-1.090946107,2.965869783,1.39178E-05,-0.000176265,-0.001305316
name_12,A,2,-0.000576241,-6.74519E-05,4.54239E-07,0.21027816,1.793948931,0.000626257,-0.001560964,-0.019592187
name_12,A,3,-0.000347989,-4.08623E-05,1.65595E-07,-0.018312086,1.782308375,0.000319158,-0.00101997,-0.011831631
name_12,A,4,-0.000135225,-1.56746E-05,2.44064E-08,-0.035970247,1.685844783,0.000106616,-0.000384504,-0.004597636
name_12,A,5,-7.8543E-05,-9.13869E-06,9.37399E-09,-0.781393155,2.238468295,1.26834E-05,-0.00028647,-0.002670463
name_12,A,6,0.000113636,1.29813E-05,2.38162E-08,-0.958329849,2.603393519,0.000260281,-0.000239798,0.003863632
name_12,A,7,-0.000173225,-2.02087E-05,4.12054E-08,-0.32665963,1.814144358,0.000101354,-0.000546042,-0.00588964
name_12,A,8,0.000192712,2.19725E-05,6.09422E-08,-0.867982822,2.373409312,0.000427602,-0.000348781,0.006552196
name_12,A,9,-0.000167388,-1.93103E-05,3.75719E-08,0.274399702,1.719851142,0.000174295,-0.000420356,-0.005691201
name_12,A,10,,,,,,,,
name_12,A,11,-7.244E-05,-8.08864E-06,9.87216E-09,0.865112546,2.479523251,0.000149735,-0.000172889,-0.002462961
name_12,A,12,-3.55259E-05,-4.18954E-06,2.79354E-09,-1.156430018,3.113576884,1.18447E-05,-0.000167463,-0.001207882
name_12,A,13,,,,,,,,
name_12,A,14,-0.000182962,-2.1138E-05,4.44195E-08,-0.037246028,1.662752555,0.000139035,-0.000515313,-0.006220718
name_12,A,15,-0.000201589,-2.33036E-05,5.45639E-08,-0.253289401,1.721004883,0.000112285,-0.000610567,-0.00685404
name_13,A,1,-0.000231841,-2.7272E-05,7.40237E-08,0.160463822,1.817007382,0.000250303,-0.000649039,-0.00788258
name_13,A,2,-0.000201988,-2.36994E-05,5.58561E-08,0.138938919,1.791436741,0.000209976,-0.000564727,-0.006867586
name_13,A,3,-0.00029216,-3.42672E-05,1.1667E-07,0.113545013,1.783287869,0.000295897,-0.000822888,-0.009933454
name_13,A,4,-0.000100756,-1.1894E-05,1.40495E-08,-0.100961296,1.832386665,8.9538E-05,-0.000307249,-0.003425701
name_13,A,5,-0.000156315,-1.82876E-05,3.32093E-08,0.086982042,1.759358662,0.00015142,-0.000440467,-0.005314716
name_13,A,6,-0.000251839,-2.95837E-05,8.68705E-08,-0.080136374,1.790776054,0.000215565,-0.000755388,-0.00856253
name_13,A,7,-0.000154165,-1.80905E-05,3.24579E-08,-0.02342299,1.777344745,0.000138721,-0.000452855,-0.005241611
name_13,A,8,-0.000239403,-2.80505E-05,7.80785E-08,-0.060869927,1.768337524,0.000203725,-0.000708975,-0.008139715
name_13,A,9,-0.00028388,-3.33074E-05,1.10357E-07,-0.145687774,1.792967623,0.000224044,-0.000864694,-0.009651927
name_13,A,10,-0.000197371,-2.32428E-05,5.39859E-08,-0.233949383,1.847841404,0.000147316,-0.000621864,-0.006710602
name_13,A,11,-0.000227484,-2.66196E-05,7.03444E-08,-0.07669273,1.759995977,0.000188064,-0.000674222,-0.007734448
name_13,A,12,-0.000219177,-2.56756E-05,6.53914E-08,-0.030784328,1.764575698,0.000191928,-0.00064297,-0.007452001
name_13,A,13,-0.000162016,-1.90169E-05,3.59251E-08,-0.108763774,1.78824605,0.000134171,-0.0004883,-0.005508537
name_13,A,14,-0.000201799,-2.35184E-05,5.48898E-08,-0.027013667,1.725014182,0.000169117,-0.000582163,-0.006861162
name_13,A,15,-0.000252846,-2.95676E-05,8.67496E-08,0.0503524,1.752209191,0.000236636,-0.000718989,-0.008596749
name_13,B,1,-0.000192827,-2.27063E-05,5.14145E-08,-0.200015437,1.837432429,0.000148751,-0.000602742,-0.006556133
name_13,B,2,-0.000267123,-3.13801E-05,9.76612E-08,0.026087935,1.786272318,0.000253425,-0.00077668,-0.009082199
name_13,B,3,-0.000483946,-5.68319E-05,3.20303E-07,0.001544359,1.783126169,0.000447329,-0.001416179,-0.01645418
name_13,B,4,-0.000218496,-2.56322E-05,6.52172E-08,0.079970113,1.779702551,0.000215049,-0.000622449,-0.007428876
name_13,B,5,-0.000360395,-4.23826E-05,1.78136E-07,-0.012333826,1.794607725,0.000333016,-0.001063329,-0.012253415
name_13,B,6,-0.000481431,-5.65066E-05,3.16676E-07,0.023391947,1.779342001,0.000452031,-0.001397611,-0.016368646
name_13,B,7,-0.000292286,-3.44132E-05,1.17443E-07,0.011840062,1.803976173,0.000279011,-0.000859213,-0.009937711
name_13,B,8,-0.000331731,-3.90154E-05,1.50979E-07,0.035431949,1.796065552,0.000320311,-0.000965533,-0.01127886
name_13,B,9,-0.000530579,-6.22032E-05,3.83992E-07,0.068489617,1.773413443,0.00051423,-0.001513922,-0.018039696
name_13,B,10,-0.000416072,-4.88456E-05,2.36644E-07,0.032632035,1.781369677,0.000394537,-0.001205475,-0.014146457
name_13,B,11,-0.00030672,-3.60229E-05,1.28753E-07,-0.060465567,1.787000547,0.000267367,-0.000914286,-0.010428488
name_13,B,12,-0.000353582,-4.13365E-05,1.69547E-07,-0.046742251,1.750058443,0.000298385,-0.001036616,-0.012021791
name_13,B,13,-0.000236007,-2.78344E-05,7.70133E-08,0.130934115,1.83054452,0.000252723,-0.000673138,-0.008024241
name_13,B,14,-0.000235328,-2.76842E-05,7.63194E-08,0.171843702,1.819935923,0.000255919,-0.000657167,-0.008001137
name_13,B,15,-0.000198215,-2.3403E-05,5.43185E-08,0.000918179,1.827019625,0.000191693,-0.00058966,-0.006739304
name_13,C,1,-0.000397698,-4.64451E-05,2.14181E-07,0.075849711,1.744361113,0.000374828,-0.001119588,-0.013521716
name_13,C,2,-0.000366094,-4.28902E-05,1.82673E-07,0.09260283,1.771064394,0.000360332,-0.00103489,-0.012447209
name_13,C,3,-0.000666782,-7.79834E-05,6.03922E-07,0.088751632,1.757139537,0.000644108,-0.001877743,-0.02267058
name_13,C,4,-0.000352661,-4.13006E-05,1.69692E-07,0.143909767,1.777792673,0.00036233,-0.000979311,-0.011990478
name_13,C,5,-0.000457387,-5.35941E-05,2.84972E-07,0.049429041,1.767517013,0.000433667,-0.001310583,-0.015551165
name_13,C,6,-0.000708656,-8.29073E-05,6.82113E-07,0.057512499,1.756003309,0.000666742,-0.002017163,-0.024094315
name_13,C,7,-0.000448991,-5.26688E-05,2.75286E-07,0.067822818,1.777903731,0.000437085,-0.001283532,-0.015265691
name_13,C,8,-0.000515105,-6.03644E-05,3.6153E-07,-0.052288488,1.768941569,0.0004431,-0.001522324,-0.017513564
name_13,C,9,-0.000751644,-8.79083E-05,7.66541E-07,0.01003189,1.751172216,0.000673931,-0.002168778,-0.025555913
name_13,C,10,-0.00050475,-5.91688E-05,3.47428E-07,0.066078094,1.772301102,0.000487448,-0.001441094,-0.017161502
name_13,C,11,-0.000440054,-5.15286E-05,2.63614E-07,-0.083262804,1.766276362,0.000363469,-0.001309784,-0.014961841
name_13,C,12,-0.000446799,-5.22411E-05,2.70986E-07,-0.082847249,1.755058849,0.000362839,-0.001325064,-0.015191172
name_13,C,13,-0.000334507,-3.92918E-05,1.53496E-07,0.134719733,1.799163255,0.000349135,-0.00094028,-0.011373254
name_13,C,14,-0.000338211,-3.96229E-05,1.55747E-07,0.041605529,1.765634243,0.000317742,-0.000971093,-0.011499159
name_13,C,15,-0.00042367,-4.94922E-05,2.43137E-07,0.063689833,1.745382884,0.000396804,-0.001197197,-0.014404765
name_14,A,1,-2.68193E-05,-3.09516E-06,9.90803E-10,0.460446737,1.863639329,3.38912E-05,-6.24891E-05,-0.000911856
name_14,A,2,-0.000376055,-4.35705E-05,1.98294E-07,0.527278387,1.924050689,0.000497973,-0.000867166,-0.012785871
name_14,A,3,-0.000358934,-4.16071E-05,1.76514E-07,0.391790247,1.816256813,0.000424886,-0.000879283,-0.012203758
name_14,A,4,-0.000106216,-1.22477E-05,1.52984E-08,0.373346897,1.772728564,0.00012033,-0.000256409,-0.00361135
name_14,A,5,-0.000153512,-1.77114E-05,3.13473E-08,0.171470491,1.677844132,0.000143566,-0.000402349,-0.005219412
name_14,A,6,-0.000169474,-1.95161E-05,3.86446E-08,0.32946555,1.736952952,0.000182898,-0.000414483,-0.005762116
name_14,A,7,-0.000117062,-1.34337E-05,1.81485E-08,0.229517323,1.665503242,0.000111898,-0.000294076,-0.00398011
name_14,A,8,-0.000260872,-3.00401E-05,9.00075E-08,0.122859966,1.653202472,0.000228782,-0.000690632,-0.008869644
name_14,A,9,-0.000165579,-1.91674E-05,3.67648E-08,0.208760103,1.712937067,0.000165235,-0.000432697,-0.005629674
name_14,A,10,-0.000164762,-1.89502E-05,3.6689E-08,0.375121198,1.758227667,0.000183937,-0.000393454,-0.005601893
name_14,A,11,-9.90191E-05,-1.14125E-05,1.34708E-08,0.457148206,1.832341382,0.00012045,-0.000230566,-0.00336665
name_14,A,12,-0.000231767,-2.67966E-05,7.19635E-08,0.22372479,1.710285155,0.000232445,-0.00059989,-0.007880077
name_14,A,13,-0.000116911,-1.34326E-05,1.89996E-08,0.528558294,1.883574764,0.000149826,-0.000264298,-0.003974973
name_14,A,14,-0.000143199,-1.65126E-05,2.75673E-08,0.305174046,1.731760032,0.000152512,-0.00035538,-0.004868755
name_14,A,15,-4.74296E-05,-5.47988E-06,3.0469E-09,0.342751197,1.767748423,5.31632E-05,-0.000116608,-0.001612605
name_14,C,1,-0.0001609,-1.89063E-05,4.66877E-08,-1.059367371,2.814582423,2.86543E-05,-0.000679724,-0.005470584
name_14,C,2,-0.000688013,-7.95954E-05,6.38169E-07,-0.283379692,1.742590351,0.0003657,-0.002112365,-0.02339245
name_14,C,3,-0.00039869,-4.61574E-05,2.11768E-07,0.059333754,1.679389546,0.000342374,-0.001098051,-0.013555453
name_14,C,4,-0.000115249,-1.33179E-05,2.05485E-08,-0.81917946,2.301323974,2.00745E-05,-0.000427977,-0.003918469
name_14,C,5,3.81956E-05,4.47868E-06,4.45745E-09,-1.110213333,3.207725928,0.000102719,-0.00013242,0.001298649
name_14,C,6,-7.26398E-05,-8.31623E-06,7.26102E-09,-0.500305362,1.838204263,1.91788E-05,-0.000234525,-0.002469752
name_14,C,7,-9.37787E-05,-1.08357E-05,1.32309E-08,-0.761307951,2.204340457,1.68525E-05,-0.000339236,-0.003188477
name_14,C,8,-0.000109478,-1.26791E-05,1.81918E-08,-0.781309879,2.238495205,1.88487E-05,-0.00039962,-0.003722253
name_14,C,9,-0.000106157,-1.22779E-05,1.50506E-08,-0.168949385,1.69391861,6.83209E-05,-0.000313514,-0.003609354
name_14,C,10,-0.000250254,-2.89419E-05,8.33598E-08,-0.096000002,1.677271695,0.000177089,-0.000722651,-0.008508645
name_14,C,11,-0.000130054,-1.49705E-05,2.31777E-08,-0.45129712,1.825073389,4.1966E-05,-0.000417553,-0.00442183
name_14,C,12,-8.17468E-05,-9.42763E-06,1.31485E-08,-1.034745343,2.816255761,2.53611E-05,-0.000355734,-0.002779391
name_14,C,13,-0.000197256,-2.27835E-05,5.32592E-08,-0.419481897,1.817336511,7.49224E-05,-0.000630201,-0.006706702
name_14,C,14,-0.000123368,-1.42036E-05,2.60921E-08,-0.94600546,2.562991452,2.71522E-05,-0.000493414,-0.004194526
name_14,C,15,-0.000134765,-1.56622E-05,4.08839E-08,-1.099114624,3.030837211,5.41581E-05,-0.000634938,-0.004582015
name_14,B,1,-0.000211454,-2.46028E-05,6.00768E-08,0.011965822,1.712235155,0.000181457,-0.000599852,-0.007189426
name_14,B,2,-0.000403406,-4.68137E-05,2.17785E-07,-0.072107171,1.697617332,0.0003068,-0.001166437,-0.013715806
name_14,B,3,-0.00025989,-3.02571E-05,9.10145E-08,-0.106604291,1.726322756,0.000196801,-0.000766448,-0.008836256
name_14,B,4,-0.000213665,-2.48236E-05,6.11959E-08,-0.048265683,1.703519657,0.000168847,-0.000615465,-0.007264608
name_14,B,5,-0.000144198,-1.68881E-05,2.85851E-08,-0.265203874,1.818994292,9.60362E-05,-0.000452722,-0.00490272
name_14,B,6,1.64764E-05,1.86801E-06,3.79655E-10,0.574151238,1.916034389,5.47838E-05,-4.04068E-06,0.000560199
name_14,B,7,-0.000120141,-1.39318E-05,1.92872E-08,0.062797175,1.691336839,0.000105355,-0.000331932,-0.004084799
name_14,B,8,-0.000129366,-1.50929E-05,2.26831E-08,0.154423595,1.752983993,0.000131026,-0.000353043,-0.004398452
name_14,B,9,-9.39627E-05,-1.10288E-05,1.21091E-08,0.164007869,1.801489581,0.000100443,-0.000260667,-0.003194731
name_14,B,10,-0.000177495,-2.05966E-05,4.21446E-08,0.057269522,1.695554773,0.000155531,-0.000492556,-0.006034845
name_14,B,11,-0.000114951,-1.34034E-05,1.80711E-08,0.29551979,1.800345713,0.000130323,-0.000298588,-0.00390832
name_14,B,12,-0.000231039,-2.69573E-05,7.22705E-08,-0.125506778,1.746262942,0.000175194,-0.000689507,-0.007855312
name_14,B,13,-0.000187494,-2.17692E-05,4.7057E-08,-0.029755587,1.697699788,0.000150367,-0.000535936,-0.006374804
name_14,B,14,-0.000205613,-2.39438E-05,5.73526E-08,-0.226154955,1.760368764,0.00013404,-0.000628657,-0.006990832
name_14,B,15,-0.000201659,-2.35964E-05,5.52828E-08,-0.083372287,1.760501483,0.000165454,-0.000598804,-0.006856421
name_15,B,1,1.70999E-05,2.11483E-06,2.92242E-09,-0.91843869,2.952146702,7.393E-05,-0.000121464,0.000581397
name_15,B,2,-0.000677098,-7.89433E-05,6.18482E-07,0.036778966,1.728603597,0.000609606,-0.001915397,-0.023021323
name_15,B,3,-0.000273177,-3.17839E-05,1.05087E-07,-0.522728469,1.941159852,9.71415E-05,-0.000912394,-0.009288006
name_15,B,4,-0.000201307,-2.32707E-05,5.53491E-08,-0.39816335,1.804009008,8.35495E-05,-0.000638711,-0.006844446
name_15,B,5,-0.000356126,-4.13378E-05,1.70143E-07,-0.132275671,1.709561476,0.000252795,-0.001049404,-0.012108271
name_15,B,6,-0.000224416,-2.62528E-05,7.37389E-08,-0.662671208,2.11767334,5.83413E-05,-0.000792004,-0.007630132
name_15,B,7,-0.00019825,-2.29028E-05,5.63127E-08,-0.625273108,2.013058746,4.40916E-05,-0.000678641,-0.006740492
name_15,B,8,-0.000347675,-4.05708E-05,1.64333E-07,-0.202716421,1.766929984,0.000241358,-0.00106066,-0.011820966
name_15,B,9,-0.000238527,-2.7838E-05,7.88827E-08,-0.401382778,1.866788119,0.00012141,-0.000772432,-0.008109923
name_15,B,10,-0.000243945,-2.84456E-05,8.07889E-08,-0.201443279,1.760796368,0.000168143,-0.000742265,-0.008294132
name_15,B,11,-0.000352207,-4.09732E-05,1.67385E-07,0.169742228,1.735446473,0.000352869,-0.000947631,-0.01197504
name_15,B,12,-4.03303E-05,-4.65782E-06,2.21238E-09,-0.37892481,1.782543346,1.73253E-05,-0.000126689,-0.001371229
name_15,B,13,-0.000283279,-3.30027E-05,1.10656E-07,0.381643062,1.845358972,0.000343898,-0.000708982,-0.00963147
name_15,B,14,-0.000315729,-3.68939E-05,1.37759E-07,0.358998034,1.85173254,0.000382907,-0.000806309,-0.010734784
name_15,B,15,-0.000234615,-2.72719E-05,7.42664E-08,-0.192595717,1.736243667,0.000156171,-0.000707202,-0.007976904
name_15,A,1,3.07738E-05,3.78452E-06,4.40225E-09,1.188921553,3.549808616,0.000209737,-3.33521E-05,0.00104631
name_15,A,2,-0.000635397,-7.42318E-05,5.51075E-07,0.230833368,1.785909118,0.000690885,-0.001700255,-0.021603512
name_15,A,3,-0.000117882,-1.39223E-05,1.98035E-08,-0.456383746,1.990847108,6.72015E-05,-0.000397925,-0.004007972
name_15,A,4,-0.000119631,-1.40446E-05,2.0019E-08,0.393630547,1.905302846,0.000152664,-0.000307346,-0.004067459
name_15,A,5,-0.00033248,-3.88839E-05,1.50916E-07,0.204557118,1.784546965,0.000356372,-0.000900675,-0.011304306
name_15,A,6,-0.000101939,-1.22648E-05,1.71975E-08,-0.956318449,2.669581631,2.27322E-05,-0.000411716,-0.00346593
name_15,A,7,2.10211E-05,2.16713E-06,5.61077E-10,0.203781828,1.446544169,5.4398E-05,-8.29658E-06,0.000714718
name_15,A,8,-0.000358323,-4.19778E-05,1.75003E-07,0.096361909,1.771485998,0.000354644,-0.001010481,-0.012182979
name_15,A,9,-0.000121292,-1.43837E-05,2.17114E-08,-0.622025948,2.158858759,5.47362E-05,-0.000432229,-0.004123942
name_15,A,10,-0.000114853,-1.36155E-05,1.85131E-08,-0.224246736,1.896713529,9.42904E-05,-0.00036619,-0.003904996
name_15,A,11,-0.000520516,-6.08239E-05,3.67305E-07,0.076137657,1.749026269,0.000494862,-0.001465807,-0.017697545
name_15,A,12,-0.000116198,-1.35997E-05,1.83447E-08,-0.008655697,1.756314259,0.000103226,-0.000337402,-0.00395072
name_15,A,13,-0.000470524,-5.49517E-05,3.02609E-07,0.256894891,1.794372049,0.000522398,-0.001245619,-0.015997832
name_15,A,14,-0.00064932,-7.58795E-05,5.81598E-07,0.342179199,1.840837705,0.000775217,-0.001671133,-0.022076879
name_15,A,15,-0.000162856,-1.90944E-05,3.71697E-08,0.425092357,1.916737986,0.000211154,-0.000411565,-0.005537092
name_15,C,1,-8.3367E-05,-9.69921E-06,9.36151E-09,0.129392383,1.726745168,8.0797E-05,-0.000227336,-0.002834479
name_15,C,2,-0.000358218,-4.23466E-05,1.79567E-07,-0.265377982,1.889402719,0.00027161,-0.001147824,-0.012179426
name_15,C,3,8.26717E-05,9.07818E-06,2.6707E-08,-0.770404531,2.506085156,0.000259869,-0.000295705,0.002810837
name_15,C,4,-0.000138397,-1.63778E-05,3.25852E-08,-1.00795659,2.700285981,1.76403E-05,-0.000565176,-0.004705502
name_15,C,5,-0.00031316,-3.68947E-05,1.43926E-07,-0.6390017,2.133978829,0.000113376,-0.001109508,-0.010647455
name_15,C,6,1.61356E-05,1.32014E-06,1.74603E-08,-0.530009168,1.977659198,0.00016791,-0.000248956,0.00054861
name_15,C,7,-0.000134154,-1.59967E-05,3.93549E-08,-1.214612738,3.251711614,3.74575E-05,-0.000640617,-0.004561219
name_15,C,8,-0.00020539,-2.43942E-05,6.49553E-08,-0.783237892,2.349108921,5.97584E-05,-0.000770219,-0.006983263
name_15,C,9,-9.30006E-05,-1.11672E-05,1.85871E-08,-1.237569151,3.287273894,2.18345E-05,-0.000442801,-0.003162019
name_15,C,10,-0.000103591,-1.23953E-05,1.95263E-08,-1.112430421,2.933356048,1.16426E-05,-0.000446045,-0.003522087
name_15,C,11,-0.000575973,-6.73385E-05,4.51065E-07,-0.137709958,1.763219664,0.000442654,-0.001732097,-0.01958308
name_15,C,12,-4.8153E-05,-5.97911E-06,8.38514E-09,-1.318825303,3.772893436,3.53604E-05,-0.000298345,-0.001637203
name_15,C,13,-0.000430371,-5.02925E-05,2.50959E-07,0.038632562,1.746111029,0.000396168,-0.001225484,-0.014632624
name_15,C,14,-0.000465072,-5.44704E-05,2.95145E-07,0.14220463,1.779076738,0.000479877,-0.001290086,-0.015812461
name_15,C,15,-0.000178,-2.10113E-05,4.49829E-08,-0.435064199,1.969205271,0.00010506,-0.000595756,-0.006052011
name_16,B,1,-0.00025014,-2.97384E-05,8.77705E-08,0.025475455,1.88566128,0.000261618,-0.000753403,-0.008504746
name_16,B,2,-0.000240964,-2.84226E-05,8.0123E-08,0.028104604,1.81920868,0.000237546,-0.000708046,-0.008192777
name_16,B,3,-0.000266672,-3.16664E-05,1.01335E-07,-0.372017312,1.979786433,0.000186386,-0.000890347,-0.009066831
name_16,B,4,-7.6464E-05,-9.08959E-06,8.20853E-09,-0.095965585,1.890465371,7.2641E-05,-0.000237398,-0.002599777
name_16,B,5,-9.69652E-06,-1.42206E-06,7.66764E-10,-1.560630767,4.800156879,1.56874E-05,-9.37356E-05,-0.000329682
name_16,B,6,-3.18243E-05,-4.14395E-06,3.81432E-09,-1.558395994,4.450922069,1.9182E-05,-0.000212073,-0.001082026
name_16,B,7,-9.1314E-05,-1.08895E-05,1.18806E-08,-0.269297669,1.964696491,7.59241E-05,-0.000299351,-0.003104678
name_16,B,8,-0.00017863,-2.11542E-05,4.45525E-08,-0.166900443,1.873461998,0.000152146,-0.000560867,-0.006073432
name_16,B,9,-3.90071E-05,-4.9959E-06,3.18567E-09,-1.354451299,3.73756534,1.60602E-05,-0.000193339,-0.001326241
name_16,B,10,-8.45876E-05,-1.0058E-05,1.00826E-08,0.184269182,1.91338362,0.000100799,-0.000242563,-0.002875977
name_16,B,11,-0.000146639,-1.72423E-05,3.00016E-08,0.346838165,1.889234555,0.000182478,-0.000385107,-0.004985731
name_16,B,12,-5.19081E-05,-6.32436E-06,4.10243E-09,-0.490765089,2.276172298,4.36911E-05,-0.00018883,-0.001764876
name_16,B,13,-0.000204319,-2.39201E-05,5.68486E-08,0.108767945,1.768729646,0.000204011,-0.000571979,-0.006946856
name_16,B,14,-0.000162531,-1.91669E-05,3.66554E-08,0.210494309,1.851424618,0.000185739,-0.000451515,-0.005526048
name_16,B,15,-0.000466241,-5.43231E-05,2.98899E-07,0.357559789,1.828940593,0.000553497,-0.001180118,-0.015852208
name_16,C,1,0.000188506,2.188E-05,4.95228E-08,0.485123196,1.897380063,0.000620375,-6.865E-05,0.006409194
name_16,C,2,0.000296055,3.42001E-05,1.19359E-07,0.384792353,1.788413719,0.000932597,-0.000125989,0.010065861
name_16,C,3,8.85236E-05,9.79436E-06,1.15104E-08,0.64193081,1.943466958,0.000295538,-2.26518E-05,0.003009802
name_16,C,4,9.25844E-05,1.05008E-05,1.17269E-08,0.507105324,1.800996122,0.000294537,-2.19644E-05,0.003147869
name_16,C,5,5.15096E-05,5.77955E-06,3.99645E-09,0.715947808,2.068221907,0.000179255,-1.16844E-05,0.001751327
name_16,C,6,0.000188443,2.16065E-05,5.20159E-08,0.697475387,2.075594229,0.000656941,-3.5527E-05,0.006407051
name_16,C,7,0.00014272,1.634E-05,2.74017E-08,0.384488498,1.735424618,0.000440787,-4.94002E-05,0.00485249
name_16,C,8,0.000206935,2.37193E-05,6.00888E-08,0.572505117,1.915094827,0.00068614,-4.73703E-05,0.0070358
name_16,C,9,0.000172729,1.98924E-05,4.47611E-08,0.753461124,2.173507319,0.000619398,-3.06108E-05,0.005872794
name_16,C,10,0.000164045,1.86486E-05,3.77666E-08,0.587123685,1.90118586,0.000541065,-3.5169E-05,0.00557752
name_16,C,11,0.000329054,3.80635E-05,1.46323E-07,0.308107375,1.751026265,0.001014811,-0.000169068,0.011187842
name_16,C,12,-6.26252E-05,-7.33456E-06,8.99866E-09,1.134891426,3.109513085,0.000174572,-0.000149803,-0.002129256
name_16,C,13,0.000349405,4.02356E-05,1.62611E-07,0.233072966,1.686512393,0.001040442,-0.000190558,0.011879762
name_16,C,14,0.000324571,3.74839E-05,1.41176E-07,0.249851435,1.712265447,0.00097876,-0.000180208,0.011035401
name_16,C,15,-2.94313E-06,-7.42285E-07,9.86963E-09,0.591417821,2.174506136,0.000221662,-0.000116333,-0.000100066
name_16,A,1,-6.6006E-05,-8.04554E-06,6.54222E-09,0.323294644,2.186502519,9.87303E-05,-0.000197655,-0.002244202
name_16,A,2,-8.59534E-05,-1.02007E-05,2.28742E-08,-1.165580368,3.341434228,5.75492E-05,-0.000479087,-0.002922417
name_16,A,3,-0.000515721,-6.0308E-05,3.94438E-07,-0.708595438,2.176444184,0.000112783,-0.001850763,-0.017534528
name_16,A,4,-0.000144378,-1.70237E-05,3.00448E-08,-0.545076275,2.050617685,6.72816E-05,-0.000498439,-0.004908861
name_16,A,5,-0.000163746,-1.92263E-05,4.0082E-08,-0.723458239,2.217498266,3.78159E-05,-0.000594093,-0.005567354
name_16,A,6,-0.000287785,-3.3823E-05,1.15944E-07,-0.384583793,1.907841985,0.000169295,-0.000942712,-0.009784682
name_16,A,7,-0.000121341,-1.43504E-05,2.10055E-08,-0.446630583,1.993839723,7.20184E-05,-0.000409578,-0.004125591
name_16,A,8,-0.000361056,-4.24456E-05,1.8024E-07,-0.248035278,1.840201182,0.000258839,-0.001137881,-0.012275897
name_16,A,9,-0.000274473,-3.23647E-05,1.13628E-07,-0.739807644,2.259318984,6.91558E-05,-0.001006593,-0.00933209
name_16,A,10,-0.000134095,-1.59613E-05,2.53468E-08,0.136816996,1.90826307,0.000153465,-0.000393546,-0.004559237
name_16,A,11,-3.9693E-05,-4.83524E-06,2.34372E-09,0.170329677,2.131003551,5.42161E-05,-0.000123601,-0.001349562
name_16,A,12,-0.000220193,-2.5818E-05,6.79293E-08,-0.422399299,1.914945159,0.000116794,-0.00072529,-0.007486554
name_16,A,13,-0.000206634,-2.43725E-05,5.89346E-08,-0.056180078,1.820980593,0.000188968,-0.000621965,-0.007025556
name_16,A,14,0.000129163,1.47059E-05,2.1796E-08,-0.206334192,1.612966851,0.000316731,-0.000114459,0.004391526
name_16,A,15,-0.000395083,-4.65072E-05,2.15026E-07,-0.133908133,1.81718163,0.000325866,-0.001211376,-0.013432827
name_17,C,1,-0.000234166,-2.74013E-05,7.47052E-08,-0.145308649,1.772673249,0.00017905,-0.000708643,-0.007961659
name_17,C,2,-0.000875409,-0.000102209,1.04253E-06,-0.197198307,1.770174362,0.000612543,-0.002673479,-0.029763908
name_17,C,3,-9.9487E-05,-1.1735E-05,1.57136E-08,-0.880264285,2.463103003,1.49478E-05,-0.000383894,-0.003382557
name_17,C,4,-0.000266783,-3.11488E-05,9.84593E-08,-0.37904404,1.856885979,0.000141626,-0.000859869,-0.009070608
name_17,C,5,-0.000178267,-2.0904E-05,4.53552E-08,-0.536493898,2.005778685,7.45296E-05,-0.000607532,-0.006061067
name_17,C,6,-0.000184004,-2.15872E-05,4.74831E-08,-0.422680958,1.919123699,9.87519E-05,-0.000606843,-0.006256152
name_17,C,7,-0.000281286,-3.2834E-05,1.08199E-07,-0.273707627,1.798219602,0.000176448,-0.000878294,-0.009563717
name_17,C,8,-0.000370666,-4.32615E-05,1.86536E-07,-0.174066967,1.760493877,0.000265777,-0.001123355,-0.012602659
name_17,C,9,-0.000353616,-4.13059E-05,1.69939E-07,-0.16340007,1.763512508,0.000259929,-0.001070199,-0.012022933
name_17,C,10,-0.000415066,-4.84254E-05,2.34546E-07,-0.228946382,1.775778005,0.000275787,-0.001277116,-0.014112248
name_17,C,11,-0.000374029,-4.36726E-05,1.90549E-07,-0.214679774,1.776550394,0.000255875,-0.001148426,-0.012716991
name_17,C,12,-0.00015033,-1.77007E-05,3.31731E-08,-0.643753138,2.141194394,5.16733E-05,-0.000533949,-0.005111218
name_17,C,13,-0.000503204,-5.87187E-05,3.46177E-07,-0.27729839,1.797368885,0.0003126,-0.001571499,-0.017108922
name_17,C,14,-0.000532278,-6.20859E-05,3.83845E-07,-0.154455154,1.750419693,0.000388527,-0.001600645,-0.01809744
name_17,C,15,-0.00055292,-6.45577E-05,4.1393E-07,-0.08693687,1.744426722,0.00044192,-0.001633535,-0.018799285
name_17,A,1,-0.000200605,-2.34373E-05,5.4939E-08,-0.232102788,1.788219825,0.000134648,-0.000620579,-0.006820565
name_17,A,2,-0.000828967,-9.69332E-05,9.32289E-07,-0.044976387,1.75129046,0.000703568,-0.002428692,-0.028184869
name_17,A,3,-0.000164104,-1.93116E-05,3.70471E-08,-0.111500693,1.809289317,0.000138877,-0.000498655,-0.00557955
name_17,A,4,-0.000305754,-3.58338E-05,1.27777E-07,-0.151810858,1.785391776,0.000237157,-0.00092971,-0.010395627
name_17,A,5,-0.000216263,-2.52988E-05,6.36681E-08,-0.13983395,1.768699013,0.00016621,-0.000652439,-0.007352925
name_17,A,6,-0.000217809,-2.56367E-05,6.51779E-08,0.012666628,1.80143744,0.000207721,-0.000639268,-0.00740551
name_17,A,7,-0.000259304,-3.03425E-05,9.13178E-08,-0.003940784,1.755031229,0.000231364,-0.000751456,-0.008816328
name_17,A,8,-0.000295708,-3.47421E-05,1.19989E-07,0.131038933,1.800030423,0.000308113,-0.000832727,-0.010054082
name_17,A,9,-0.000316172,-3.71627E-05,1.37236E-07,0.120071943,1.801493826,0.00032773,-0.000894432,-0.010749837
name_17,A,10,-0.000337427,-3.95809E-05,1.55537E-07,0.086871382,1.780223584,0.000334864,-0.00095795,-0.01147252
name_17,A,11,-0.000279198,-3.28097E-05,1.06894E-07,0.097108109,1.795992483,0.000283579,-0.000794678,-0.009492733
name_17,A,12,-0.000222573,-2.60828E-05,6.75864E-08,0.108173721,1.775379206,0.000222358,-0.000626777,-0.007567465
name_17,A,13,-0.00041214,-4.82743E-05,2.31142E-07,-0.019009288,1.762990715,0.000365548,-0.001203428,-0.014012751
name_17,A,14,-0.000252798,-2.96115E-05,8.70322E-08,-0.072856189,1.767156499,0.000212674,-0.00074991,-0.008595127
name_17,A,15,-0.000518968,-6.06193E-05,3.64537E-07,-0.006228054,1.741529128,0.000453287,-0.001498478,-0.017644916
name_17,B,1,-0.000101375,-1.21566E-05,1.4985E-08,-0.405306941,2.083073222,7.7132E-05,-0.000349308,-0.003446745
name_17,B,2,-0.0007417,-8.732E-05,7.63922E-07,-0.269308942,1.859542326,0.000528792,-0.002358489,-0.025217801
name_17,B,3,-0.000161214,-1.906E-05,3.77382E-08,-0.562302234,2.081759527,7.74745E-05,-0.000561531,-0.005481282
name_17,B,4,-0.000290562,-3.425E-05,1.19768E-07,-0.447545793,1.968731286,0.000163314,-0.000973735,-0.009879114
name_17,B,5,-0.000159868,-1.88862E-05,3.64216E-08,-0.45262579,1.989556137,9.23885E-05,-0.000539219,-0.005435515
name_17,B,6,-0.000153096,-1.81189E-05,3.43716E-08,-0.605676237,2.129204571,6.84146E-05,-0.000541043,-0.005205266
name_17,B,7,-0.000267646,-3.15166E-05,9.99057E-08,-0.315327678,1.882315986,0.000180199,-0.000862586,-0.009099947
name_17,B,8,-0.0002015,-2.38952E-05,6.06623E-08,-0.678417287,2.219269673,7.83852E-05,-0.000730595,-0.006851009
name_17,B,9,-0.000229603,-2.71312E-05,7.66183E-08,-0.571727595,2.086265194,0.00010697,-0.000801043,-0.007806497
name_17,B,10,-0.000382368,-4.48841E-05,2.0269E-07,-0.313474823,1.857461196,0.000246767,-0.00122277,-0.013000519
name_17,B,11,-0.000272744,-3.21487E-05,1.04205E-07,-0.341803813,1.903256676,0.000179861,-0.000887365,-0.009273289
name_17,B,12,-0.000232415,-2.73935E-05,7.58423E-08,-0.36500495,1.915245019,0.000148382,-0.000760782,-0.007902097
name_17,B,13,-0.000463556,-5.44209E-05,2.97222E-07,-0.285654416,1.845032387,0.000311546,-0.001470998,-0.015760904
name_17,B,14,-0.000193205,-2.28544E-05,5.20666E-08,-0.193443283,1.87090171,0.000158797,-0.00060881,-0.006568957
name_17,B,15,-0.000403859,-4.73294E-05,2.22246E-07,-0.05067315,1.769138857,0.000347865,-0.001193351,-0.013731207
name_19,A,1,-0.000509993,-5.9371E-05,3.49918E-07,0.042935878,1.717881877,0.0004553,-0.001433927,-0.01733977
name_19,A,2,-0.000454368,-5.26946E-05,2.76891E-07,0.159607663,1.710071347,0.000438834,-0.00121549,-0.015448516
name_19,A,3,-0.000595971,-6.90073E-05,4.73063E-07,-0.013925333,1.677784658,0.000471336,-0.001683134,-0.020262997
name_19,A,4,-0.000263129,-3.06144E-05,9.59388E-08,-0.4307787,1.869386365,0.000116737,-0.000855456,-0.008946396
name_19,A,5,-0.00025348,-2.94328E-05,8.73603E-08,-0.30770097,1.778072217,0.000138153,-0.000789897,-0.008618325
name_19,A,6,-0.00030977,-3.59599E-05,1.31136E-07,-0.355849724,1.803881185,0.000153716,-0.000979241,-0.010532168
name_19,A,7,-0.000266693,-3.09306E-05,9.62897E-08,-0.284285869,1.758201067,0.000148457,-0.000822798,-0.009067564
name_19,A,8,-0.000234248,-2.7183E-05,7.54149E-08,-0.402180905,1.832122811,0.000104528,-0.000750781,-0.007964433
name_19,A,9,-0.000298164,-3.46002E-05,1.22821E-07,-0.43624722,1.856680278,0.00012298,-0.000965749,-0.010137561
name_19,A,10,-0.000225947,-2.62823E-05,7.10065E-08,-0.456474606,1.886940804,9.40321E-05,-0.000739872,-0.007682183
name_19,A,11,-0.000214192,-2.48596E-05,6.44882E-08,-0.529131354,1.936277737,6.80947E-05,-0.00071488,-0.007282541
name_19,A,12,-8.33338E-05,-9.58016E-06,1.33996E-08,-1.011941972,2.756730638,2.55281E-05,-0.00035697,-0.002833349
name_19,A,13,-0.000294239,-3.41358E-05,1.1653E-07,-0.208066717,1.728060189,0.00018586,-0.000887185,-0.010004132
name_19,A,14,-0.00022205,-2.57827E-05,6.8533E-08,-0.467545879,1.885743143,8.54666E-05,-0.000727502,-0.007549686
name_19,A,15,-0.000191023,-2.22094E-05,5.02048E-08,-0.38908115,1.83516767,9.14535E-05,-0.000612081,-0.006494797
name_19,B,1,-1.088E-05,-1.36482E-06,5.76966E-10,-1.25463965,3.732875689,1.18959E-05,-7.6966E-05,-0.000369919
name_19,B,2,-0.000214913,-2.51315E-05,6.41429E-08,-0.389281594,1.87503356,0.000114493,-0.000697497,-0.007307058
name_19,B,3,-0.000312367,-3.63528E-05,1.33233E-07,-0.312459524,1.796237965,0.000175409,-0.000980045,-0.01062048
name_19,B,4,-0.000281309,-3.27809E-05,1.08479E-07,-0.328747109,1.812827131,0.000157965,-0.000888763,-0.009564507
name_19,B,5,-0.000244946,-2.85057E-05,8.27292E-08,-0.39420884,1.843421228,0.000118956,-0.000786987,-0.008328169
name_19,B,6,-0.0002867,-3.33972E-05,1.13997E-07,-0.424400192,1.871458204,0.000133063,-0.000931965,-0.009747791
name_19,B,7,-0.000198046,-2.30837E-05,5.4515E-08,-0.432933085,1.881411223,9.14691E-05,-0.000646197,-0.006733547
name_19,B,8,-0.000218023,-2.54176E-05,6.57518E-08,-0.397031398,1.85773848,0.000108821,-0.00070399,-0.007412775
name_19,B,9,-0.000208415,-2.42477E-05,6.09322E-08,-0.503176849,1.928202019,7.65591E-05,-0.000693236,-0.007086099
name_19,B,10,-0.000106132,-1.24125E-05,1.61534E-08,-0.578177705,2.027537219,3.67546E-05,-0.000364531,-0.003608502
name_19,B,11,-0.00016876,-1.96277E-05,4.05269E-08,-0.573782771,1.992456127,4.95066E-05,-0.000573775,-0.005737852
name_19,B,12,-3.83132E-05,-4.36061E-06,4.96796E-09,-0.952985564,2.887515932,3.38114E-05,-0.000211606,-0.001302647
name_19,B,13,-0.000196388,-2.29206E-05,5.45344E-08,-0.522454049,1.96324846,7.51801E-05,-0.000660636,-0.006677185
name_19,B,14,-0.000270493,-3.14483E-05,9.99705E-08,-0.333555265,1.800800693,0.000144018,-0.000852065,-0.009196763
name_19,B,15,-0.000243338,-2.83802E-05,8.20102E-08,-0.401581867,1.864803006,0.000120762,-0.000788105,-0.008273484
name_19,C,1,-0.000185419,-2.20017E-05,5.17262E-08,0.70433295,2.254714838,0.000307953,-0.000438586,-0.006304262
name_19,C,2,1.06189E-06,-3.53725E-07,9.19407E-09,0.601615506,2.190531871,0.000219292,-0.000107722,3.61043E-05
name_19,C,3,7.92065E-06,2.9115E-07,5.79907E-09,0.546869409,2.16272279,0.000183009,-8.09191E-05,0.000269302
name_19,C,4,-3.63153E-05,-4.62239E-06,4.00795E-09,1.495136003,4.124034729,0.000142187,-8.76486E-05,-0.001234719
name_19,C,5,-2.34669E-05,-3.0696E-06,1.92566E-09,1.572820867,4.41463062,0.00010372,-5.89466E-05,-0.000797873
name_19,C,6,2.78317E-05,2.69506E-06,2.91255E-09,0.377730664,1.76798716,0.000126829,-3.74706E-05,0.000946278
name_19,C,7,4.37482E-05,4.70539E-06,3.35528E-09,0.652443862,2.087054667,0.000159572,-1.95191E-05,0.001487438
name_19,C,8,6.3742E-05,6.95851E-06,6.36656E-09,0.658116732,2.021343518,0.000220624,-2.10994E-05,0.002167229
name_19,C,9,0.000121317,1.3679E-05,1.96901E-08,0.435100478,1.711570003,0.000372244,-3.16686E-05,0.004124761
name_19,C,10,-1.66194E-05,-2.32539E-06,2.16122E-09,1.390725512,4.275693763,0.000118728,-6.09445E-05,-0.000565059
name_19,C,11,3.4413E-05,3.65599E-06,2.29201E-09,0.62178122,2.086740513,0.000130304,-1.89286E-05,0.001170041
name_19,C,12,0.000107532,1.24907E-05,1.5502E-08,-0.07233496,1.705629732,0.000296731,-9.77677E-05,0.003656086
name_19,C,13,-6.15286E-05,-7.65486E-06,9.32089E-09,1.412815842,3.789982796,0.000201632,-0.00013728,-0.002091972
name_19,C,14,4.27525E-06,6.38837E-08,4.63806E-09,0.567847795,2.146570353,0.000158391,-7.42093E-05,0.000145358
name_19,C,15,-3.04898E-05,-3.94932E-06,3.04564E-09,1.542794928,4.286237797,0.000127461,-7.49728E-05,-0.001036653
k1,A,1,0.00018221,2.12549E-05,5.38965E-08,0.915117563,2.496047981,0.000710401,-2.88734E-05,0.006195139
k1,A,2,0.000220692,2.6018E-05,6.75974E-08,-0.223503194,1.853445963,0.00061049,-0.000254072,0.007503543
k1,A,3,7.68156E-05,9.29225E-06,9.16065E-09,-0.709641441,2.389976847,0.00019828,-0.000136599,0.002611731
k1,A,4,-7.20235E-05,-8.11792E-06,6.67756E-09,0.195025229,1.553286576,5.70125E-05,-0.000173019,-0.0024488
k1,A,5,-0.000134883,-1.5359E-05,2.3594E-08,-0.07747329,1.575674526,8.01945E-05,-0.000370141,-0.004586013
k1,A,6,-0.000179642,-2.07827E-05,4.37717E-08,0.337865055,1.771893929,0.000201577,-0.000444979,-0.006107816
k1,A,7,-0.000134252,-1.52127E-05,2.42315E-08,-0.43691601,1.742906334,3.71699E-05,-0.000418191,-0.004564557
k1,A,8,-0.00029958,-3.47806E-05,1.20827E-07,0.19248833,1.727869388,0.000301576,-0.000794379,-0.010185724
k1,A,9,-0.000160552,-1.8475E-05,3.39941E-08,-0.073223701,1.639638747,0.000110375,-0.000453204,-0.005458773
k1,A,10,-0.000323616,-3.74729E-05,1.39533E-07,-0.04280453,1.679423561,0.000247923,-0.000922015,-0.011002935
k1,A,11,-0.000335429,-3.89433E-05,1.5154E-07,0.198677876,1.729879763,0.000339372,-0.000887878,-0.011404575
k1,A,12,-8.35819E-05,-9.53258E-06,9.0954E-09,0.114556861,1.592964156,6.71313E-05,-0.000214002,-0.002841786
k1,A,13,-0.000473012,-5.49745E-05,3.00826E-07,0.131211006,1.718390868,0.000452577,-0.001286464,-0.016082396
k1,A,14,-0.000116613,-1.33965E-05,1.80524E-08,0.23661614,1.677651208,0.000114166,-0.000292054,-0.003964837
k1,A,15,-0.000194706,-2.25262E-05,5.0923E-08,0.242551719,1.723643262,0.000200629,-0.000500333,-0.006619988
k1,B,1,-8.70271E-05,-1.03638E-05,1.24896E-08,-0.959954868,2.638486227,1.16222E-05,-0.000349455,-0.002958922
k1,B,2,1.71068E-06,-4.60145E-08,3.01343E-10,-0.767651098,3.00753029,2.19654E-05,-4.53207E-05,5.8163E-05
k1,B,3,0.000118788,1.3617E-05,1.85357E-08,0.136133144,1.625588441,0.000337834,-7.18823E-05,0.004038808
k1,B,4,3.08293E-05,3.28498E-06,1.17863E-09,0.231058848,1.41159244,7.95225E-05,-9.37993E-06,0.001048197
k1,B,5,0.000156398,1.78733E-05,3.38543E-08,0.530218196,1.855620116,0.000507864,-3.77805E-05,0.005317522
k1,B,6,-2.80718E-06,-6.63247E-07,8.49021E-10,0.976394441,3.472510686,7.82847E-05,-3.52388E-05,-9.54441E-05
k1,B,7,0.000159989,1.82547E-05,3.33399E-08,0.112020282,1.592525282,0.000445837,-9.37204E-05,0.005439629
k1,B,8,-6.41723E-05,-7.7097E-06,6.86019E-09,0.969615367,2.667752613,0.000130941,-0.000140992,-0.002181859
k1,B,9,-2.84894E-05,-3.38926E-06,1.14292E-09,-0.135306974,1.912687348,2.49069E-05,-9.08749E-05,-0.00096864
k1,B,10,0.000108629,1.21956E-05,1.50927E-08,0.180958362,1.526920704,0.0002974,-4.30024E-05,0.003693384
k1,B,11,2.71595E-05,2.78187E-06,1.075E-09,0.344448558,1.610834114,7.79151E-05,-1.21375E-05,0.000923424
k1,B,12,0.000117259,1.33948E-05,1.86164E-08,0.435446796,1.764010316,0.000367313,-3.43455E-05,0.003986802
k1,B,13,0.000140618,1.57823E-05,2.51277E-08,0.086464231,1.500508814,0.000370024,-6.69393E-05,0.004780998
k1,B,14,8.89128E-05,1.01179E-05,1.10074E-08,0.56191264,1.8702692,0.000290099,-1.9471E-05,0.003023035
k1,B,15,-8.1138E-05,-9.80109E-06,1.10244E-08,0.976186659,2.714188673,0.000168642,-0.000182887,-0.002758693
k1,C,1,-9.22746E-05,-1.08506E-05,1.17779E-08,0.247441146,1.844607636,0.00010715,-0.000250109,-0.003137338
k1,C,2,6.1554E-05,7.00028E-06,5.08581E-09,-0.41386258,1.736304533,0.000141244,-6.79925E-05,0.002092835
k1,C,3,0.000123859,1.41244E-05,1.99407E-08,0.080049987,1.584312327,0.000341165,-7.56201E-05,0.004211222
k1,C,4,0.000130647,1.49536E-05,2.23942E-08,-0.156407866,1.625249238,0.000333635,-0.000113876,0.004441992
k1,C,5,0.000211085,2.4197E-05,5.96885E-08,0.345142654,1.719935541,0.000646889,-8.14444E-05,0.007176897
k1,C,6,-0.000170081,-2.02153E-05,4.36825E-08,0.710213797,2.271496104,0.000285115,-0.000404597,-0.005782761
k1,C,7,0.000379227,4.39513E-05,1.99846E-07,-0.480194456,1.889409555,0.000890268,-0.00048734,0.012893702
k1,C,8,-0.000255311,-3.02325E-05,1.06462E-07,0.940445928,2.583111781,0.000502509,-0.000545238,-0.008680561
k1,C,9,-8.41007E-05,-9.95773E-06,1.03027E-08,0.567116329,2.097793645,0.00012611,-0.000209482,-0.002859423
k1,C,10,0.000419151,4.85456E-05,2.43638E-07,-0.473820331,1.880273038,0.000984044,-0.000534271,0.014251144
k1,C,11,0.000216327,2.47362E-05,6.22952E-08,0.323642111,1.692506001,0.00065447,-8.35859E-05,0.007355107
k1,C,12,6.38468E-05,7.1372E-06,5.14455E-09,0.018558605,1.475951566,0.000161874,-3.27028E-05,0.00217079
k1,C,13,0.000331229,3.80714E-05,1.44595E-07,-0.11149452,1.640070967,0.000872338,-0.000284899,0.011261796
k1,C,14,0.000153669,1.7417E-05,3.17669E-08,0.439758408,1.74124956,0.000477946,-4.18744E-05,0.005224759
k1,C,15,1.8404E-05,1.73758E-06,4.94481E-09,0.518853553,1.951549088,0.000156565,-6.2553E-05,0.000625736
name_20,A,1,0.000169601,1.94511E-05,3.77012E-08,-0.045959333,1.616046508,0.000454382,-0.000132036,0.005766445
name_20,A,2,-6.47369E-05,-7.99111E-06,8.89539E-09,-1.342050127,3.573657869,6.78602E-06,-0.000316888,-0.002201056
name_20,A,3,-3.17235E-05,-3.86645E-06,1.73001E-09,1.015049704,2.803061503,6.84833E-05,-7.39141E-05,-0.0010786
name_20,A,4,-0.000332971,-3.9279E-05,1.54905E-07,0.297425265,1.886408797,0.000405187,-0.000902166,-0.01132101
name_20,A,5,-0.0001518,-1.80504E-05,3.2708E-08,0.298080807,1.950791322,0.000193798,-0.000422699,-0.005161212
name_20,A,6,-4.92575E-05,-5.92234E-06,3.84923E-09,0.833331885,2.4774412,9.18693E-05,-0.000117572,-0.001674756
name_20,A,7,-0.000267105,-3.16149E-05,1.0176E-07,0.433235053,1.988816956,0.000364591,-0.000699336,-0.009081555
name_20,A,8,-2.91762E-05,-3.56263E-06,2.19793E-09,-1.346900352,3.678750604,1.04141E-05,-0.000155568,-0.000991991
name_20,A,9,6.61944E-05,7.69812E-06,6.27178E-09,-0.598925039,2.020255822,0.000150314,-9.47033E-05,0.002250609
name_20,A,10,-0.000263728,-3.11508E-05,9.91437E-08,0.456494687,1.989850145,0.000362168,-0.000679155,-0.008966761
name_20,A,11,-0.000112597,-1.32005E-05,1.863E-08,-0.668089649,2.140741027,3.05061E-05,-0.000400026,-0.003828301
name_20,A,12,7.06713E-05,8.0535E-06,6.53336E-09,-0.20676814,1.617110834,0.000174067,-6.28598E-05,0.002402825
name_20,A,13,-0.000293988,-3.45923E-05,1.19568E-07,0.231475988,1.840136678,0.000335452,-0.000806228,-0.009995608
name_20,A,14,-0.000293399,-3.45204E-05,1.19017E-07,0.224343349,1.837032902,0.000332746,-0.000806348,-0.00997557
name_20,A,15,-0.000260828,-3.07124E-05,9.35495E-08,-0.027738454,1.805399026,0.000240283,-0.000775862,-0.008868135
name_20,C,1,-5.81849E-05,-6.78158E-06,9.52335E-09,-1.093939346,3.131859167,3.59032E-05,-0.000304197,-0.001978285
name_20,C,2,-0.000318567,-3.73738E-05,1.38623E-07,0.070532618,1.778940665,0.000310346,-0.000911189,-0.01083129
name_20,C,3,-0.000210389,-2.45815E-05,6.22262E-08,0.481422443,1.931577052,0.000278255,-0.000514268,-0.007153231
name_20,C,4,-0.000488913,-5.71313E-05,3.30781E-07,0.370355249,1.855984421,0.000595455,-0.001246683,-0.016623043
name_20,C,5,-0.00037337,-4.36246E-05,1.89716E-07,0.180540103,1.769342768,0.000388225,-0.001017953,-0.012694579
name_20,C,6,-0.000187901,-2.19294E-05,4.96903E-08,0.497382825,1.937419567,0.000250218,-0.000454051,-0.00638865
name_20,C,7,-0.00049649,-5.80708E-05,3.49549E-07,0.521618877,1.973707737,0.000681648,-0.001197127,-0.016880673
name_20,C,8,7.89003E-05,9.10215E-06,8.45056E-09,-0.372682831,1.7908162,0.00018879,-9.20355E-05,0.002682609
name_20,C,9,8.31452E-05,9.68585E-06,1.1404E-08,-0.935839733,2.53081564,0.0001798,-0.000161049,0.002826935
name_20,C,10,-0.00051475,-6.01083E-05,3.74907E-07,0.522061044,1.96259794,0.000700747,-0.001232819,-0.017501514
name_20,C,11,-8.22873E-05,-9.61349E-06,1.37264E-08,-1.104400522,2.975340129,2.35993E-05,-0.000369758,-0.002797769
name_20,C,12,-0.000109949,-1.27407E-05,1.65195E-08,-0.376531158,1.808590283,4.97348E-05,-0.000349198,-0.003738259
name_20,C,13,-0.00047245,-5.50219E-05,3.03306E-07,0.245986697,1.768763913,0.000508575,-0.001244885,-0.01606329
name_20,C,14,-0.00046459,-5.41402E-05,2.92449E-07,0.187783994,1.75233786,0.000477299,-0.001251721,-0.015796044
name_20,C,15,-0.000286414,-3.34279E-05,1.11513E-07,0.19608011,1.76610757,0.000299712,-0.00077359,-0.009738084
name_20,B,1,0.000352306,4.08895E-05,1.73203E-07,-0.492580146,1.906454151,0.000828418,-0.000459238,0.011978412
name_20,B,2,3.402E-05,3.82932E-06,2.45209E-09,0.926915035,2.646156342,0.000148409,-1.54749E-05,0.00115668
name_20,B,3,-0.000204482,-2.4098E-05,5.79068E-08,0.199519057,1.842619658,0.000230608,-0.000569011,-0.006952377
name_20,B,4,-3.09343E-05,-3.9794E-06,6.45048E-09,1.193658359,3.666396621,0.000190491,-0.000109881,-0.001051765
name_20,B,5,3.30582E-05,3.55454E-06,1.76922E-09,0.610981518,1.992266582,0.000114655,-1.31749E-05,0.00112398
name_20,B,6,-0.000203364,-2.39574E-05,5.6925E-08,-0.030125198,1.80938535,0.000188142,-0.000605843,-0.006914384
name_20,B,7,-0.000166505,-1.98464E-05,4.47045E-08,0.908800894,2.558179079,0.000323256,-0.000361294,-0.005661154
name_20,B,8,0.000206064,2.40952E-05,5.81228E-08,-0.247173338,1.800109651,0.000549263,-0.000229335,0.007006193
name_20,B,9,8.81685E-05,1.03233E-05,1.25824E-08,-0.916127628,2.50957587,0.000189831,-0.000168182,0.00299773
name_20,B,10,-0.000184743,-2.20542E-05,5.32089E-08,0.808189056,2.422269286,0.000335695,-0.000427288,-0.006281272
name_20,B,11,7.84464E-05,9.36816E-06,1.40342E-08,-1.237751467,3.348692551,0.000181363,-0.000228409,0.002667178
name_20,B,12,0.000141556,1.64336E-05,2.84221E-08,-0.568896183,1.981462027,0.000323246,-0.000196761,0.004812896
name_20,B,13,-0.000102997,-1.22285E-05,1.90951E-08,1.087689113,2.883391824,0.000233329,-0.000220374,-0.003501914
name_20,B,14,-0.000203727,-2.38979E-05,5.79124E-08,0.384786141,1.892475769,0.000256546,-0.000524268,-0.006926723
name_20,B,15,-6.06358E-05,-7.20877E-06,6.57012E-09,1.082435629,2.871122851,0.000136358,-0.000129235,-0.002061616
name_21,B,1,5.48374E-05,6.14282E-06,4.04478E-09,-0.460325407,1.742437246,0.000124593,-6.1106E-05,0.001864473
name_21,B,2,8.89879E-05,9.90884E-06,1.18099E-08,-0.678935494,2.036164805,0.000201089,-0.000129285,0.00302559
name_21,B,3,7.43626E-06,9.58972E-07,1.14541E-10,1.301933098,3.665779091,3.64541E-05,-4.5225E-06,0.000252833
name_21,B,4,-0.000214267,-2.51148E-05,6.37149E-08,0.349628452,1.86579171,0.000261471,-0.000556949,-0.007285085
name_21,B,5,0.000162559,1.86722E-05,3.71611E-08,-0.574866325,1.933646835,0.000363446,-0.00021771,0.005527006
name_21,B,6,-0.000114868,-1.34204E-05,1.87622E-08,0.543915899,1.99009188,0.000160129,-0.000272133,-0.003905504
name_21,B,7,-7.12922E-06,-9.11651E-07,1.48728E-10,1.570615098,4.363717656,2.81687E-05,-1.64101E-05,-0.000242393
name_21,B,8,-1.1126E-06,-2.45981E-07,8.10512E-10,-0.65121799,2.281226633,3.07205E-05,-6.72193E-05,-3.78285E-05
name_21,B,9,0.000238977,2.77665E-05,7.78432E-08,-0.321270266,1.790156668,0.000606517,-0.000271228,0.008125209
name_21,B,10,-7.93331E-05,-9.52849E-06,9.25646E-09,-0.451920037,2.116936719,5.95163E-05,-0.000276377,-0.002697327
name_21,B,11,-0.000233544,-2.75126E-05,7.93982E-08,0.603110214,2.100730525,0.000352421,-0.000559336,-0.007940482
name_21,B,12,6.89814E-05,7.86276E-06,6.24155E-09,-0.234071258,1.62796293,0.00016869,-6.2915E-05,0.002345367
name_21,B,13,-1.08486E-05,-1.47264E-06,2.76797E-10,-1.295896924,3.977424329,1.30892E-05,-5.71424E-05,-0.000368852
name_21,B,14,-0.000431662,-5.05245E-05,2.64932E-07,0.530623159,1.990937626,0.000601616,-0.001036487,-0.014676499
name_21,B,15,-0.000189615,-2.23909E-05,4.99947E-08,-0.20062692,1.859261458,0.000151599,-0.000596304,-0.006446909
name_21,A,1,0.001519798,0.000176057,3.20139E-06,-0.469706033,1.873769973,0.003588293,-0.001922038,0.05167313
name_21,A,2,0.0008066,9.3049E-05,8.60945E-07,-0.023874085,1.652360078,0.002220903,-0.000644772,0.027424386
name_21,A,3,-0.000325126,-3.78232E-05,1.41994E-07,-0.015251295,1.711334962,0.000269965,-0.000930629,-0.011054285
name_21,A,4,0.000162283,1.85822E-05,3.46061E-08,-0.17157902,1.629654159,0.000414289,-0.00014233,0.005517611
name_21,A,5,-3.93076E-05,-4.72355E-06,2.99678E-09,-1.198761617,3.184067635,5.80104E-06,-0.00017874,-0.001336459
name_21,A,6,-0.000284398,-3.32774E-05,1.09983E-07,0.094540401,1.761767048,0.000277879,-0.000799889,-0.009669543
name_21,A,7,8.80189E-05,1.01172E-05,1.19015E-08,-0.798870947,2.250996166,0.000192064,-0.000146586,0.002992642
name_21,A,8,0.000211539,2.45081E-05,6.16394E-08,-0.432164711,1.844345949,0.000507442,-0.000259276,0.007192312
name_21,A,9,2.2226E-05,2.45641E-06,1.6054E-09,-0.822326155,2.589000458,6.47972E-05,-7.12206E-05,0.000755683
name_21,A,10,3.29237E-05,3.68996E-06,2.64981E-09,-0.913492133,2.695081108,8.54231E-05,-8.77895E-05,0.001119406
name_21,A,11,-0.000276692,-3.25827E-05,1.05608E-07,0.149788672,1.822756289,0.000298223,-0.000780098,-0.009407514
name_21,A,12,7.3454E-05,8.44285E-06,7.59719E-09,-0.577165433,1.939514421,0.000164346,-9.88091E-05,0.002497437
name_21,A,13,1.34561E-05,1.35661E-06,1.7018E-09,-0.541808093,2.010790535,6.07278E-05,-7.20398E-05,0.000457508
name_21,A,14,-0.000431722,-5.07562E-05,2.59527E-07,0.329603516,1.878336045,0.000529376,-0.00114126,-0.014678544
name_21,A,15,0.000218288,2.48447E-05,6.17514E-08,-0.076217968,1.573549744,0.000563711,-0.000163116,0.007421779
name_21,C,1,0.000144336,1.67351E-05,4.3114E-08,-1.074933462,2.92949711,0.000336841,-0.000361142,0.004907408
name_21,C,2,1.90911E-05,1.97549E-06,3.78834E-09,-0.584077553,2.0933345,8.87799E-05,-0.00011275,0.000649097
name_21,C,3,-5.05179E-06,-6.5204E-07,2.65733E-10,-1.005407257,3.208901765,1.18381E-05,-4.82229E-05,-0.000171761
name_21,C,4,-0.000205133,-2.39321E-05,5.69506E-08,-0.120786848,1.74476796,0.000156199,-0.000611349,-0.006974524
name_21,C,5,-8.38623E-05,-1.00152E-05,1.61134E-08,-1.231711046,3.324329449,2.65935E-05,-0.000411152,-0.00285132
name_21,C,6,-1.55512E-05,-1.89837E-06,7.9985E-10,-1.278838503,3.638126864,1.02904E-05,-9.16645E-05,-0.000528742
name_21,C,7,-5.88453E-05,-6.87083E-06,4.97097E-09,-0.592110406,2.033592852,1.83072E-05,-0.000202587,-0.00200074
name_21,C,8,-0.000142264,-1.66215E-05,2.74198E-08,-0.05742319,1.746245083,0.000117987,-0.000417667,-0.004836989
name_21,C,9,4.92682E-05,5.55729E-06,4.82026E-09,-0.929536096,2.622864637,0.000117861,-0.000110595,0.00167512
name_21,C,10,-0.000126071,-1.4772E-05,2.22837E-08,-0.435528507,1.920429856,6.42344E-05,-0.000416502,-0.004286404
name_21,C,11,-0.000244659,-2.85655E-05,8.11567E-08,-0.129729333,1.751979366,0.00018623,-0.000732172,-0.008318421
name_21,C,12,-9.34778E-05,-1.09541E-05,1.23363E-08,-0.480034035,1.95438849,4.37257E-05,-0.000312923,-0.003178247
name_21,C,13,-0.000154667,-1.82022E-05,3.43947E-08,-0.547630199,2.040749194,6.84722E-05,-0.000532657,-0.005258691
name_21,C,14,-0.000330014,-3.84967E-05,1.47217E-07,-0.089721784,1.73813482,0.000260256,-0.000973596,-0.011220476
name_21,C,15,-0.000209703,-2.46911E-05,6.31606E-08,-0.537872135,2.035813408,9.59968E-05,-0.000720916,-0.007129916
name_22,B,1,-8.05796E-05,-9.45846E-06,8.87564E-09,0.052920263,1.78262231,7.87102E-05,-0.000231045,-0.002739706
name_22,B,2,0.000174057,2.04719E-05,4.62302E-08,0.783512214,2.312420724,0.000647267,-3.44535E-05,0.005917938
name_22,B,3,0.000549168,6.42633E-05,4.18003E-07,0.363522239,1.864487907,0.001772215,-0.000309149,0.018671704
name_22,B,4,-0.000102417,-1.18948E-05,1.40481E-08,0.026661716,1.699736855,8.77342E-05,-0.00028772,-0.00348219
name_22,B,5,-4.13602E-05,-4.84009E-06,2.42417E-09,-0.514218082,1.974725402,1.72983E-05,-0.000139589,-0.001406246
name_22,B,6,-5.27928E-05,-6.12526E-06,3.72606E-09,0.031130612,1.692765107,4.50413E-05,-0.000147604,-0.001794956
name_22,B,7,-8.69581E-05,-1.01601E-05,1.11158E-08,-0.681692543,2.139776402,2.03307E-05,-0.000308947,-0.002956576
name_22,B,8,-9.25687E-05,-1.07668E-05,1.1558E-08,-0.169016115,1.733580775,6.41569E-05,-0.000277489,-0.003147334
name_22,B,9,-5.81486E-05,-6.73364E-06,4.56055E-09,0.271748218,1.743168008,6.19678E-05,-0.000148379,-0.001977054
name_22,B,10,-8.65245E-05,-1.00952E-05,1.03621E-08,-0.392132243,1.860058839,4.43823E-05,-0.000279477,-0.002941833
name_22,B,11,-0.000105134,-1.22522E-05,1.494E-08,-0.138927181,1.73992935,7.76573E-05,-0.00031378,-0.003574571
name_22,B,12,-6.27952E-05,-7.26098E-06,5.32963E-09,0.315015084,1.75544046,6.88361E-05,-0.000156814,-0.002135035
name_22,B,13,-0.000101637,-1.1863E-05,1.40152E-08,-0.158555655,1.75583062,7.47816E-05,-0.000306234,-0.003455667
name_22,B,14,-0.000128126,-1.49528E-05,2.3542E-08,0.590465173,2.032957298,0.000184953,-0.000295255,-0.004356274
name_22,B,15,-0.000100666,-1.19303E-05,1.53936E-08,0.746480905,2.297955432,0.000171462,-0.000232021,-0.003422635
name_22,C,1,0.000128212,1.49247E-05,2.23902E-08,0.282654589,1.78378934,0.000399192,-7.52651E-05,0.004359196
name_22,C,2,0.000287204,3.36093E-05,1.12489E-07,0.164335245,1.778237707,0.000874706,-0.000214097,0.009764937
name_22,C,3,8.62125E-05,1.01785E-05,1.06256E-08,-0.482050163,2.004826682,0.000219599,-0.000120158,0.002931224
name_22,C,4,-8.37122E-05,-9.68055E-06,9.51329E-09,0.349906888,1.778192566,9.50052E-05,-0.000205784,-0.002846215
name_22,C,5,-7.05931E-05,-8.14732E-06,6.60378E-09,-0.064792736,1.658585949,5.09993E-05,-0.000200413,-0.002400167
name_22,C,6,4.23274E-05,5.06246E-06,2.69081E-09,-0.642007107,2.239332698,0.000106799,-6.93571E-05,0.00143913
name_22,C,7,-0.000117561,-1.35795E-05,1.85622E-08,-0.270310899,1.724974004,6.26634E-05,-0.000357757,-0.003997077
name_22,C,8,-4.74431E-05,-5.48033E-06,3.01707E-09,-0.248084958,1.715535483,2.62314E-05,-0.000143444,-0.001613067
name_22,C,9,5.6506E-05,6.67568E-06,4.43847E-09,-0.176654051,1.856746752,0.000159504,-6.38571E-05,0.001921205
name_22,C,10,-3.58807E-05,-4.12199E-06,2.56972E-09,-1.020706469,2.797435512,1.19975E-05,-0.000156543,-0.001219944
name_22,C,11,-6.55736E-05,-7.63685E-06,5.78762E-09,-0.006023066,1.719408262,5.61671E-05,-0.000187242,-0.002229502
name_22,C,12,1.6038E-05,1.97982E-06,5.67419E-10,-1.352740338,3.587371405,3.43476E-05,-4.75593E-05,0.000545293
name_22,C,13,-5.97983E-05,-7.0616E-06,5.1309E-09,0.504602787,2.033797797,8.5644E-05,-0.000150298,-0.002033141
name_22,C,14,-4.44177E-05,-5.23416E-06,5.36606E-09,1.169091695,3.302590692,0.000144821,-0.000112854,-0.001510201
name_22,C,15,-0.000105307,-1.25069E-05,1.68056E-08,0.728794153,2.292403497,0.000178749,-0.000247053,-0.003580423
name_22,A,1,-8.7135E-05,-1.03625E-05,2.15376E-08,1.196590617,3.37179762,0.000294773,-0.000223238,-0.002962589
name_22,A,2,-0.000123355,-1.44453E-05,2.1158E-08,0.380038479,1.87567804,0.000152887,-0.00031616,-0.004194056
name_22,A,3,-0.00016818,-1.97774E-05,3.95411E-08,0.363194084,1.898674926,0.0002117,-0.000439619,-0.005718125
name_22,A,4,-0.000194758,-2.28406E-05,5.25111E-08,0.316239945,1.85232682,0.000232634,-0.000512785,-0.006621755
name_22,A,5,-0.00016531,-1.94282E-05,3.76311E-08,0.193378672,1.818335186,0.00018167,-0.000456937,-0.005620545
name_22,A,6,-3.68481E-05,-4.4255E-06,1.94889E-09,0.077623679,1.980521963,4.34534E-05,-0.000112438,-0.001252837
name_22,A,7,-0.000374623,-4.38756E-05,1.93353E-07,0.290322279,1.829282211,0.000434461,-0.000990943,-0.012737187
name_22,A,8,-0.000165174,-1.9412E-05,3.74075E-08,0.08572931,1.79492285,0.000166181,-0.000471894,-0.005615911
name_22,A,9,-0.00010181,-1.19666E-05,1.42009E-08,0.005360241,1.790062276,9.55189E-05,-0.00029796,-0.003461547
name_22,A,10,-0.00021972,-2.57484E-05,6.63699E-08,0.25143778,1.817425218,0.000248497,-0.000589659,-0.007470481
name_22,A,11,-0.000175705,-2.05951E-05,4.23007E-08,0.194824888,1.798649589,0.000190003,-0.000480904,-0.005973973
name_22,A,12,-0.000109766,-1.2856E-05,1.64704E-08,0.179854849,1.78829638,0.000116673,-0.000300977,-0.003732057
name_22,A,13,-0.000109318,-1.27746E-05,1.73888E-08,0.643686121,2.09627788,0.000164927,-0.000247658,-0.003716822
name_22,A,14,-0.000258805,-3.02219E-05,9.66657E-08,0.614112309,2.058984522,0.000380465,-0.000592174,-0.008799385
name_22,A,15,-0.000277488,-3.23633E-05,1.15952E-07,0.75898159,2.23400661,0.000456461,-0.000605853,-0.009434581
name_23,C,1,-0.000817102,-9.49707E-05,8.95331E-07,-0.008250472,1.704593278,0.000678941,-0.002326247,-0.027781474
name_23,C,2,-0.00064557,-7.52409E-05,5.67756E-07,0.260634763,1.781779393,0.000710259,-0.001693232,-0.021949392
name_23,C,3,-0.000351174,-4.08306E-05,1.66389E-07,-0.185474199,1.73477492,0.00023779,-0.001055605,-0.011939905
name_23,C,4,-0.000163875,-1.92125E-05,3.74137E-08,-0.379607118,1.882566233,9.43604E-05,-0.000531755,-0.00557175
name_23,C,5,-0.00049112,-5.71068E-05,3.2376E-07,-0.033820342,1.708451282,0.000399965,-0.001409659,-0.016698069
name_23,C,6,-0.000285111,-3.31101E-05,1.09235E-07,-0.150548779,1.716781873,0.000199162,-0.00084543,-0.009693777
name_23,C,7,-0.000509804,-5.94084E-05,3.50218E-07,-0.011695811,1.723664734,0.00043509,-0.001461794,-0.017333352
name_23,C,8,-0.000324027,-3.77185E-05,1.41382E-07,-0.093185265,1.72251416,0.000249604,-0.000950265,-0.011016915
name_23,C,9,0.000349275,4.06318E-05,1.71925E-07,-0.527824907,1.94955038,0.00081809,-0.000472101,0.011875346
name_23,C,10,-0.000780806,-9.11103E-05,8.26647E-07,0.156317566,1.753987255,0.000791022,-0.002131708,-0.026547408
name_23,C,11,-0.000159559,-1.85268E-05,3.43295E-08,-0.212972447,1.733312171,0.000102591,-0.000481425,-0.005425005
name_23,C,12,-0.000359808,-4.19315E-05,1.74762E-07,-0.104748575,1.73276529,0.000276806,-0.001062317,-0.012233488
name_23,C,13,9.23948E-06,1.04208E-06,3.45127E-09,-0.606070123,2.131921453,7.5118E-05,-0.000118975,0.000314142
name_23,C,14,-0.000488204,-5.70459E-05,3.24916E-07,0.207102592,1.779152513,0.000521669,-0.001317064,-0.016598945
name_23,C,15,-7.019E-05,-8.29751E-06,8.89899E-09,-1.079412266,2.862654624,1.10907E-05,-0.000298767,-0.00238646
name_23,A,1,-0.000426062,-5.01987E-05,2.68792E-07,-0.676128037,2.180462197,0.000134186,-0.001530017,-0.014486124
name_23,A,2,-0.000233729,-2.71636E-05,7.33713E-08,0.104058115,1.712549538,0.000217241,-0.000642017,-0.007946775
name_23,A,3,-0.000213148,-2.48598E-05,6.6435E-08,-0.668782706,2.115344591,4.98552E-05,-0.000752091,-0.007247026
name_23,A,4,-0.000376766,-4.40402E-05,1.98017E-07,-0.427333704,1.898087442,0.000185842,-0.001235629,-0.012810042
name_23,A,5,-0.000230914,-2.68954E-05,7.44055E-08,-0.464686126,1.903183938,9.67144E-05,-0.000760601,-0.007851091
name_23,A,6,-7.70102E-05,-9.31971E-06,1.3616E-08,-1.295995097,3.480113468,2.04449E-05,-0.000384232,-0.002618345
name_23,A,7,-0.000566585,-6.60291E-05,4.41905E-07,-0.364026539,1.835048862,0.000298089,-0.00181102,-0.019263906
name_23,A,8,-0.00031377,-3.66118E-05,1.34798E-07,-0.29465272,1.805475829,0.000189357,-0.000985072,-0.010668182
name_23,A,9,-0.000169369,-2.00131E-05,4.3121E-08,-0.720722843,2.250708981,5.01041E-05,-0.000619697,-0.00575853
name_23,A,10,-0.000369811,-4.30867E-05,1.855E-07,-0.210791905,1.759187524,0.000247084,-0.001127855,-0.01257359
name_23,A,11,-0.000186173,-2.18263E-05,4.89253E-08,-0.474593903,1.95299223,8.88413E-05,-0.000622716,-0.006329881
name_23,A,12,-0.000195624,-2.29001E-05,5.43454E-08,-0.522999229,1.983543803,8.07295E-05,-0.000662088,-0.006651232
name_23,A,13,-0.00023487,-2.7574E-05,7.55059E-08,-0.098504078,1.788903754,0.00019613,-0.000707219,-0.007985589
name_23,A,14,-8.58681E-05,-1.00905E-05,1.05272E-08,-0.521436569,2.010516254,3.87191E-05,-0.000292977,-0.002919516
name_23,A,15,-0.000218392,-2.56715E-05,6.84092E-08,-0.544340614,2.032482211,9.40946E-05,-0.000750566,-0.007425316
name_23,B,1,-0.000411817,-4.76489E-05,2.34852E-07,0.472899128,1.871204067,0.000520168,-0.000964346,-0.01400179
name_23,B,2,1.33861E-05,1.85618E-06,2.31022E-09,1.121405756,3.578011012,0.000146619,-3.54257E-05,0.000455127
name_23,B,3,5.74498E-05,6.97606E-06,9.19337E-09,1.309322442,3.632179772,0.000314761,-2.6802E-05,0.001953292
name_23,B,4,-7.96906E-05,-9.134E-06,1.05072E-08,0.895893773,2.451579119,0.000150022,-0.000176476,-0.002709482
name_23,B,5,9.11005E-05,1.07522E-05,1.43678E-08,1.028944062,2.748862923,0.000376728,-1.32174E-05,0.003097417
name_23,B,6,9.90669E-05,1.18606E-05,1.7706E-08,1.111094632,2.954483713,0.000427283,-1.16925E-05,0.003368274
name_23,B,7,7.42919E-05,8.82571E-06,1.16568E-08,1.195224794,3.202155603,0.000348541,-1.93641E-05,0.002525924
name_23,B,8,4.66451E-06,6.97296E-07,5.20425E-09,0.623839513,2.178889612,0.000165712,-7.59467E-05,0.000158593
name_23,B,9,8.61354E-05,1.03108E-05,1.36428E-08,1.13157529,2.997114134,0.000375694,-1.06538E-05,0.002928605
name_23,B,10,-0.000228094,-2.6025E-05,7.72532E-08,0.724693882,2.126392616,0.000351632,-0.000502598,-0.007755192
name_23,B,11,1.27287E-05,1.74351E-06,4.75307E-09,0.820649456,2.735203391,0.000186742,-6.16264E-05,0.000432775
name_23,B,12,-1.6565E-05,-1.70276E-06,3.0719E-09,0.583109483,2.083189272,0.00010158,-7.9236E-05,-0.000563211
name_23,B,13,7.05215E-05,8.28549E-06,7.32329E-09,0.666342216,2.14619144,0.000250791,-2.118E-05,0.002397733
name_23,B,14,7.34066E-06,9.78138E-07,1.1663E-09,0.85608111,2.824214923,9.44504E-05,-2.92211E-05,0.000249582
name_23,B,15,-3.06824E-05,-3.25783E-06,5.85463E-09,0.641676604,2.231541352,0.000139136,-0.000116054,-0.001043202
name_24,C,1,5.66996E-05,6.51661E-06,4.57461E-09,0.613217499,1.988155903,0.000192725,-1.27803E-05,0.001927788
name_24,C,2,0.000297297,3.46852E-05,1.21067E-07,-0.301399668,1.806148739,0.000772962,-0.000339022,0.01010811
name_24,C,3,0.000238028,2.77328E-05,7.68401E-08,-0.208887989,1.757298385,0.00063661,-0.000248362,0.008092961
name_24,C,4,0.000108917,1.27229E-05,1.68687E-08,-0.544918891,1.985807421,0.000258384,-0.000151179,0.003703187
name_24,C,5,6.35117E-06,7.37526E-07,5.55196E-11,0.399389878,1.857839744,2.06281E-05,-2.59812E-06,0.00021594
name_24,C,6,-2.36701E-05,-2.84732E-06,8.44115E-10,0.600889628,2.239424835,3.85503E-05,-6.24685E-05,-0.000804782
name_24,C,7,3.78508E-05,4.50096E-06,2.04005E-09,-0.33396576,1.962712872,0.000104421,-4.91127E-05,0.001286926
name_24,C,8,-8.83156E-05,-1.03127E-05,1.05669E-08,0.101800666,1.747830076,8.545E-05,-0.000246452,-0.003002729
name_24,C,9,-0.000153555,-1.79921E-05,3.21758E-08,0.122555987,1.777227104,0.000155332,-0.000430359,-0.005220875
name_24,C,10,-3.85513E-05,-4.44638E-06,1.96581E-09,0.01285928,1.651802475,3.07587E-05,-0.000106324,-0.001310743
name_24,C,11,-5.99407E-06,-6.84199E-07,5.44579E-11,-0.766538485,2.169700571,1.08799E-06,-2.15013E-05,-0.000203798
name_24,C,12,4.3424E-05,5.07892E-06,2.65451E-09,0.479807834,1.937580786,0.000144516,-1.95505E-05,0.001476416
name_24,C,13,0.000169949,1.98398E-05,3.93553E-08,-0.225467557,1.77792813,0.000454592,-0.000182734,0.005778256
name_24,C,14,0.000158945,1.84616E-05,3.44777E-08,-0.33679235,1.796768619,0.000400213,-0.000182429,0.00540413
name_24,C,15,0.000152748,1.77569E-05,3.13805E-08,0.128225658,1.719523845,0.000451707,-0.000110283,0.005193434
name_24,B,1,-7.34154E-07,1.48305E-07,6.29395E-09,0.596296963,2.106249409,0.000170893,-9.00032E-05,-2.49612E-05
name_24,B,2,5.10546E-05,6.08095E-06,3.69817E-09,0.244411762,1.947595986,0.000166255,-4.24535E-05,0.001735855
name_24,B,3,-0.000334477,-3.9185E-05,1.5571E-07,-0.382280735,1.882704415,0.00018732,-0.001087028,-0.011372212
name_24,B,4,-0.000103521,-1.2091E-05,1.79713E-08,-0.963754445,2.593452319,1.67943E-05,-0.000413751,-0.003519708
name_24,B,5,-0.000297997,-3.487E-05,1.20604E-07,0.009615612,1.75507417,0.000269297,-0.00086018,-0.010131904
name_24,B,6,-0.000573996,-6.7321E-05,4.57565E-07,0.346080555,1.868903819,0.000701912,-0.001495833,-0.019515854
name_24,B,7,-0.000357955,-4.17825E-05,1.74665E-07,-0.234522595,1.781089242,0.000237887,-0.001104131,-0.012170474
name_24,B,8,-0.000632752,-7.40016E-05,5.44071E-07,0.104487292,1.759650736,0.000621788,-0.001770808,-0.021513575
name_24,B,9,-0.000762193,-8.91942E-05,7.93966E-07,0.203482312,1.788917993,0.000820125,-0.002069501,-0.025914573
name_24,B,10,-0.000439871,-5.13637E-05,2.61931E-07,0.072392341,1.743310912,0.000414526,-0.001237301,-0.014955625
name_24,B,11,-0.00043671,-5.09449E-05,2.57504E-07,-0.008156476,1.731693875,0.0003765,-0.001256322,-0.014848135
name_24,B,12,-0.00036795,-4.29978E-05,1.83635E-07,0.092949829,1.751694737,0.000355556,-0.00103072,-0.0125103
name_24,B,13,-0.000207956,-2.42878E-05,6.10868E-08,-0.511888746,1.958794078,8.32574E-05,-0.000698318,-0.007070519
name_24,B,14,-0.000271672,-3.1728E-05,1.00213E-07,0.151812442,1.759130047,0.00027575,-0.000745126,-0.009236832
name_24,B,15,-0.000463976,-5.41775E-05,2.94868E-07,0.28531428,1.8063723,0.000527398,-0.001214658,-0.015775174
name_24,A,1,-0.000333936,-3.90966E-05,1.52547E-07,0.204473643,1.792760017,0.000360699,-0.000908189,-0.011353833
name_24,A,2,-0.00037911,-4.44572E-05,1.98306E-07,0.28097827,1.835524271,0.000441096,-0.001009731,-0.012889726
name_24,A,3,-0.000324718,-3.80456E-05,1.44404E-07,0.200043385,1.797079686,0.000351492,-0.00088629,-0.011040401
name_24,A,4,-0.000285727,-3.34169E-05,1.10769E-07,0.015197064,1.751287335,0.000258706,-0.000821867,-0.00971471
name_24,A,5,-0.000291758,-3.41336E-05,1.15838E-07,0.12645718,1.766560888,0.00029345,-0.000811478,-0.009919769
name_24,A,6,-0.000471807,-5.52812E-05,3.0806E-07,0.32916995,1.852626071,0.000566388,-0.001232261,-0.016041427
name_24,A,7,-0.0003125,-3.65883E-05,1.34749E-07,0.312792267,1.839692754,0.000369511,-0.00081798,-0.010625006
name_24,A,8,-0.000567651,-6.63589E-05,4.38796E-07,0.174282447,1.772286479,0.000591697,-0.001550599,-0.019300136
name_24,A,9,-0.000612496,-7.16656E-05,5.16192E-07,0.295408344,1.825397471,0.000710148,-0.001610484,-0.020824866
name_24,A,10,-0.000350531,-4.10329E-05,1.69928E-07,0.338495413,1.852192608,0.000422521,-0.000908333,-0.01191804
name_24,A,11,-0.000316952,-3.7043E-05,1.36872E-07,0.191703532,1.776077181,0.000335227,-0.000859706,-0.010776352
