name,task,channel,avg,slope,variance,skewness,kurtosis,max,min,sum
name_1,A,1,0.003011255,3.44053E-05,7.2298E-06,0.376441701,1.446147036,0.007300766,-0.00021165,0.761847587
name_1,A,2,0.001081723,1.92576E-05,4.74864E-06,1.018656662,3.126217184,0.006009953,-0.001783591,0.273675977
name_1,A,3,-0.00124278,-3.50335E-06,7.41006E-07,0.057859972,1.570104122,7.93985E-05,-0.00246543,-0.314423449
name_1,A,4,-0.000134631,2.52887E-06,1.07767E-06,-0.082355649,1.396640868,0.00123905,-0.001517865,-0.034061752
name_1,A,5,-0.000209759,-6.3135E-07,4.95855E-07,-0.010359059,2.793863099,0.001275011,-0.001604146,-0.053069054
name_1,A,6,-0.000376777,-7.89496E-07,1.48374E-07,0.113123149,1.42530651,0.000201811,-0.000918476,-0.095324569
name_1,A,7,-1.01047E-05,-6.96139E-09,8.50301E-07,-0.213381482,1.774876618,0.001231556,-0.001604766,-0.00255648
name_1,A,8,-1.44952E-05,5.91951E-07,1.49876E-07,0.079411339,2.214054054,0.000720306,-0.000704691,-0.003667288
name_1,A,9,-0.000310955,-2.10554E-06,1.17487E-07,0.13430971,1.455589209,0.000191077,-0.000814034,-0.078671738
name_1,A,10,0.000769511,-1.8706E-06,4.84272E-07,0.499284144,2.536492788,0.002210867,-0.000645829,0.194686229
name_1,A,11,-0.000372873,-3.75628E-06,3.55744E-07,-0.06935473,1.693118571,0.000547383,-0.001395426,-0.094336919
name_1,A,12,-0.000590158,-1.60381E-06,4.57384E-07,-0.206655831,1.41094444,0.000267072,-0.001572781,-0.149309988
name_1,A,13,-0.000800115,-7.59668E-06,1.08599E-06,0.515908035,2.197923537,0.00120659,-0.002231062,-0.202429091
name_1,A,14,-4.91914E-05,5.93933E-06,7.78769E-07,0.275468582,2.090265938,0.001535968,-0.001358739,-0.012445434
name_1,A,15,0.001742005,2.47523E-05,4.13932E-06,0.423292272,1.415226239,0.004877865,-0.000538182,0.440727283
name_1,B,1,-0.000215,-9.23411E-06,1.83398E-06,1.026971774,3.122825228,0.002949196,-0.001965,-0.054395066
name_1,B,2,4.37956E-05,-6.60384E-06,3.22999E-06,0.113952313,2.081974993,0.003403953,-0.002905821,0.011080286
name_1,B,3,-5.12021E-05,2.96596E-06,7.15423E-07,-0.777013069,2.348065402,0.001040417,-0.001761265,-0.012954134
name_1,B,4,-0.000178759,2.19417E-06,8.13408E-07,-0.784828329,2.103170384,0.000751211,-0.001926125,-0.045226079
name_1,B,5,-0.000490149,-6.35175E-06,9.53785E-07,0.768748778,2.686158714,0.00160946,-0.001809834,-0.124007707
name_1,B,6,-0.000186367,2.31429E-06,2.90326E-07,-0.221314084,1.593733996,0.000574946,-0.001048598,-0.047150737
name_1,B,7,-0.000530122,-1.0095E-05,2.8911E-06,0.663552393,2.638932462,0.003089133,-0.002926809,-0.134120949
name_1,B,8,-8.83278E-05,-4.31359E-06,5.78876E-07,0.58694919,2.545977471,0.001488271,-0.001209171,-0.022346936
name_1,B,9,-0.000302496,-1.52385E-06,3.37713E-07,0.045905708,1.897191359,0.000737736,-0.001182299,-0.076531516
name_1,B,10,-0.000717183,-1.70447E-05,3.99902E-06,1.029833577,2.737098895,0.003691196,-0.002823843,-0.181447304
name_1,B,11,-0.000533043,-4.4128E-06,8.56077E-07,0.390005929,2.246587768,0.001299528,-0.001837818,-0.134859892
name_1,B,12,-0.001332504,-1.62939E-06,6.27898E-07,-0.039356865,2.110757589,4.92881E-05,-0.002610749,-0.33712341
name_1,B,13,-0.000761145,-3.10356E-06,7.49412E-07,0.115177831,2.181740376,0.000873367,-0.002111229,-0.192569724
name_1,B,14,-0.000280072,-7.95208E-07,7.91699E-07,-0.519041985,2.640980668,0.001252053,-0.00209985,-0.070858131
name_1,B,15,0.000183381,-4.74863E-06,7.22626E-07,0.724107365,2.747973417,0.002092384,-0.001015984,0.046395281
name_1,C,1,0.00118534,1.34724E-05,1.08948E-06,0.251560637,2.116049373,0.00306113,-0.000331397,0.299890958
name_1,C,2,0.001702639,1.81649E-05,2.29318E-06,-0.089643092,1.607830309,0.004045108,-0.000453344,0.430767741
name_1,C,3,-0.000616917,-2.5481E-06,1.17791E-07,0.099982311,2.19022848,3.72463E-05,-0.001239222,-0.1560799
name_1,C,4,-0.001445455,-1.54125E-05,1.78437E-06,-0.280000816,1.351913658,0.00016821,-0.003433814,-0.365700043
name_1,C,5,0.000676155,7.55878E-06,3.55787E-07,0.136454647,1.827258637,0.001755699,-0.000175078,0.17106714
name_1,C,6,-0.000692028,-2.10263E-06,1.249E-07,0.383651687,2.012620446,7.1107E-05,-0.001179893,-0.175083149
name_1,C,7,-0.000257669,-5.15012E-06,4.34688E-07,-0.840102407,2.293306405,0.000520946,-0.001592259,-0.065190308
name_1,C,8,0.000243615,-1.43841E-06,1.53117E-07,0.309805029,2.032274639,0.000937605,-0.000379717,0.061634478
name_1,C,9,-0.000329042,-9.57672E-07,8.61692E-08,0.517917081,1.83469525,0.000221462,-0.000711012,-0.083247647
name_1,C,10,-0.000899634,-9.2487E-06,8.10709E-07,-0.479705466,1.686703411,0.000165457,-0.002451211,-0.227607366
name_1,C,11,-8.71742E-05,-3.55202E-08,1.1845E-07,-0.281870744,1.858440267,0.000379775,-0.000738273,-0.022055064
name_1,C,12,-0.00051052,-2.98614E-06,9.61702E-08,0.245919538,2.106790353,4.0876E-05,-0.000987116,-0.129161525
name_1,C,13,-0.000481699,-4.02103E-06,3.02291E-07,-0.33936739,2.240796932,0.000419726,-0.001527485,-0.121869954
name_1,C,14,0.000533945,9.32484E-06,6.99181E-07,-0.117804819,1.612494384,0.001748025,-0.000757323,0.135087982
name_1,C,15,0.000786563,8.23706E-06,4.41263E-07,-0.557894129,1.615143266,0.001509033,-0.000312719,0.199000547
name_2,A,1,0.003750844,2.25341E-05,3.8311E-06,-0.157941062,2.278675869,0.007187091,-0.000456734,0.948963565
name_2,A,2,0.00390456,2.03871E-05,3.5779E-06,-0.300251513,2.311642173,0.006671258,-0.000580924,0.987853783
name_2,A,3,0.003123097,1.91863E-05,7.48036E-06,0.41713496,2.023525492,0.008383976,-0.000881874,0.790143446
name_2,A,4,0.001349425,-9.09649E-07,6.2455E-07,0.004179705,2.22944078,0.002629696,-0.000714173,0.341404461
name_2,A,5,0.000338846,1.8592E-06,5.51927E-07,0.432009578,2.25783185,0.001871324,-0.000769273,0.085727949
name_2,A,6,0.000291153,4.12421E-06,5.3627E-07,0.466192727,2.179839535,0.001730662,-0.000792892,0.073661654
name_2,A,7,0.000306452,-6.50043E-06,9.82659E-07,0.157172333,1.806951883,0.001923972,-0.001304048,0.077532431
name_2,A,8,0.000861355,5.60665E-07,2.41806E-07,0.189417818,2.294698502,0.001761809,-0.000197761,0.217922839
name_2,A,9,0.00030145,-1.09498E-06,2.08998E-07,0.509304095,2.397545684,0.00121149,-0.000406838,0.076266869
name_2,A,10,0.000156594,-4.86353E-06,5.58375E-07,0.22249142,2.055972341,0.001576875,-0.001039063,0.039618179
name_2,A,11,-8.28565E-05,-2.57228E-06,2.04446E-07,-0.029513521,2.315825574,0.000739923,-0.000903272,-0.0209627
name_2,A,12,-2.1458E-05,-3.95756E-06,2.96327E-07,-0.252075029,2.141381473,0.000876883,-0.001015087,-0.005428867
name_2,A,13,0.000337821,-2.25434E-06,4.68925E-07,0.336169801,2.298172083,0.001708561,-0.000774459,0.085468815
name_2,A,14,0.000454581,8.19231E-06,7.33875E-07,-0.658818717,2.083477806,0.001470816,-0.001201775,0.115009101
name_2,A,15,0.001744802,2.25376E-05,2.96121E-06,0.221985908,1.389645885,0.004739984,-0.000117895,0.441434783
name_2,C,1,0.001458753,1.14306E-05,8.37289E-07,0.514246032,2.487006992,0.003418833,-0.000305948,0.36906439
name_2,C,2,0.001704938,1.12475E-05,9.40331E-07,-0.481372575,1.783692082,0.002790773,-0.000525373,0.431349282
name_2,C,3,0.000485453,1.48075E-06,3.83928E-07,-0.740538087,2.649152996,0.001422684,-0.000873154,0.122819723
name_2,C,4,0.000617949,2.08694E-07,1.65546E-07,-0.197516882,2.643499106,0.001399977,-0.00040778,0.156341001
name_2,C,5,0.000670913,2.75246E-06,2.79398E-07,-0.825405876,2.220733923,0.001278483,-0.000421412,0.169741059
name_2,C,6,0.00129282,1.13233E-05,8.67801E-07,-0.104784672,1.217809286,0.002433637,-0.000111411,0.327083545
name_2,C,7,0.0003633,-4.8248E-07,1.56589E-07,0.010025141,2.277813812,0.001113062,-0.000425185,0.09191488
name_2,C,8,0.001554339,5.21073E-06,6.01287E-07,-0.972836516,2.864563863,0.002591745,-8.07091E-05,0.393247748
name_2,C,9,0.00121917,5.40572E-06,3.24935E-07,-1.071383601,2.839294933,0.001816512,-8.19855E-06,0.30845013
name_2,C,10,0.000549603,-1.40447E-06,9.77519E-08,-0.202052004,2.403297422,0.001026976,-0.000345708,0.139049685
name_2,C,11,0.00058692,1.85846E-06,8.65595E-08,-0.982912847,2.7860981,0.000946103,-3.79601E-05,0.148490843
name_2,C,12,0.000288057,-5.12059E-07,1.35958E-07,0.551678218,1.781361957,0.000942348,-0.000131415,0.07287848
name_2,C,13,0.000640906,6.6451E-08,8.48757E-08,-0.372391507,3.05650291,0.00108872,-0.000240768,0.162149203
name_2,C,14,0.001246719,1.09434E-05,1.19654E-06,-0.908872832,2.175086652,0.00234801,-0.000902673,0.31541982
name_2,C,15,0.00130376,1.6199E-05,1.79441E-06,-0.539059474,1.538608929,0.00260406,-0.000932489,0.329851332
name_2,B,1,0.003885028,2.89597E-05,6.28885E-06,-1.151600639,2.686748488,0.005944888,-0.001509323,0.982912084
name_2,B,2,0.001530699,1.23249E-05,9.67775E-07,-0.475719571,1.760607019,0.002626998,-0.00024708,0.387266868
name_2,B,3,1.61386E-05,3.52791E-06,2.58028E-07,-0.06883358,2.517580407,0.000999081,-0.000957333,0.004083057
name_2,B,4,0.000273919,3.74216E-06,2.04927E-07,-0.073551138,2.46039779,0.001111717,-0.00057642,0.069301536
name_2,B,5,0.00057472,6.12528E-06,2.86017E-07,0.183430122,1.881777619,0.001562656,-0.000242025,0.145404274
name_2,B,6,0.000762275,4.23598E-06,1.65486E-07,-0.222898147,2.293209246,0.00146565,-0.00024903,0.192855676
name_2,B,7,0.00035769,2.93664E-06,1.8722E-07,-0.073449612,2.239439618,0.001166639,-0.000450042,0.090495687
name_2,B,8,7.12963E-05,1.55118E-06,3.81343E-08,-0.483031858,2.488018858,0.000394488,-0.000325832,0.018037961
name_2,B,9,-0.000144154,-2.15232E-06,6.11837E-08,0.536103302,2.45917964,0.000373143,-0.000531008,-0.036471082
name_2,B,10,0.000489898,6.11603E-06,3.01864E-07,0.209168061,2.033459193,0.00152487,-0.000385544,0.123944272
name_2,B,11,-0.000304523,3.15336E-08,9.15409E-08,-0.17259673,1.797176096,0.000145739,-0.000849046,-0.077044256
name_2,B,12,-0.000943571,-4.5618E-06,2.13343E-07,1.065795679,2.6505988,5.07803E-06,-0.001436902,-0.238723457
name_2,B,13,5.04157E-05,4.02619E-06,2.39349E-07,0.208851713,2.660508732,0.001047656,-0.000816557,0.012755162
name_2,B,14,-0.000667206,-3.59853E-06,1.35683E-07,0.502260634,2.487771602,2.4267E-05,-0.001466462,-0.168803138
name_2,B,15,0.000923174,6.9446E-06,2.83003E-07,0.042390769,1.805734478,0.001751351,-0.000178044,0.233562977
name_3,B,1,-0.002226844,-3.11583E-05,8.54206E-06,0.715778955,2.600914206,0.004021386,-0.006390617,-0.563391601
name_3,B,2,-0.005824113,-3.88155E-05,1.02759E-05,0.845031139,2.736734646,0.001100483,-0.010241138,-1.47350067
name_3,B,3,-0.002937099,-2.09362E-05,3.24335E-06,0.477900596,2.501184177,0.000715146,-0.0059632,-0.743086022
name_3,B,4,-0.002103323,-1.38835E-05,1.5121E-06,0.845741663,2.843236888,0.000596804,-0.00391014,-0.532140705
name_3,B,5,-0.002419661,-1.68046E-05,2.00664E-06,0.916285438,2.627884399,0.000599965,-0.004030337,-0.612174222
name_3,B,6,-0.001097958,-1.05623E-05,7.39568E-07,0.544365398,2.219329264,0.000617856,-0.002290931,-0.277783335
name_3,B,7,-0.001818539,-1.02246E-05,1.08857E-06,0.972288214,3.004868276,0.000550308,-0.003264492,-0.460090364
name_3,B,8,-0.000773616,-8.32049E-06,4.30898E-07,0.323241354,2.086285211,0.000456754,-0.00185411,-0.195724765
name_3,B,9,1.98394E-06,-5.26239E-06,2.89296E-07,-0.079674446,2.130842735,0.000917327,-0.001099058,0.000501936
name_3,B,10,-0.001333393,-9.89984E-06,8.09066E-07,0.94516156,2.801570099,0.000685986,-0.00240972,-0.337348381
name_3,B,11,-0.001336093,-1.38875E-05,1.27981E-06,0.601236529,2.21633249,0.000960676,-0.002746361,-0.338031427
name_3,B,12,-0.002223908,-1.79399E-05,2.15972E-06,0.665775362,2.34443569,0.000778176,-0.004222156,-0.562648657
name_3,B,13,-0.00176252,-1.44764E-05,1.52712E-06,0.821661781,2.627906626,0.000923871,-0.003354275,-0.445917557
name_3,B,14,-0.002671434,-1.81091E-05,2.1228E-06,0.812877685,2.569226555,0.000323612,-0.004645146,-0.675872807
name_3,B,15,-0.002538296,-2.60305E-05,4.18988E-06,0.459020517,2.038110551,0.001344153,-0.005435965,-0.642188884
name_3,A,1,-0.005877911,-4.55276E-05,1.73927E-05,0.227396373,1.799068893,0.000399143,-0.012507639,-1.487111436
name_3,A,2,-0.000973387,-1.91088E-05,5.5865E-06,0.39872342,2.582302632,0.004029375,-0.004906469,-0.246266848
name_3,A,3,-0.000908664,-1.20433E-05,3.55044E-06,0.066043562,1.981690475,0.0025036,-0.004130012,-0.229891934
name_3,A,4,-0.000727007,-6.75957E-06,1.99427E-06,0.123815213,1.737329567,0.001586432,-0.0027843,-0.183932735
name_3,A,5,-0.000351718,-5.31071E-06,1.08358E-06,0.407163138,2.379747354,0.001872946,-0.001819855,-0.088984688
name_3,A,6,-0.00012347,-8.69088E-06,9.81726E-07,0.58547501,2.557057686,0.00201733,-0.001638072,-0.031237858
name_3,A,7,-0.001574481,-1.72227E-05,2.10209E-06,0.732962764,2.258322362,0.001328437,-0.003364513,-0.398343617
name_3,A,8,-8.17341E-05,-4.17531E-06,2.66802E-07,0.075525247,2.483519136,0.000920052,-0.001021208,-0.020678725
name_3,A,9,0.000289084,-5.40358E-06,6.32298E-07,0.1883783,2.417854245,0.001883847,-0.001111655,0.07313815
name_3,A,10,-0.001199957,-1.35412E-05,1.47828E-06,0.737492405,2.441058267,0.001303698,-0.002838016,-0.303589153
name_3,A,11,-0.000829408,-1.32887E-05,1.49274E-06,0.838078249,2.402556092,0.001698162,-0.002344455,-0.209840258
name_3,A,12,-0.001072493,-1.43579E-05,2.0762E-06,0.195051015,2.335258249,0.001708598,-0.003544035,-0.271340631
name_3,A,13,-0.001401602,-1.42603E-05,2.24749E-06,0.657753938,2.495523052,0.001809043,-0.003525341,-0.354605309
name_3,A,14,-0.001312917,-1.58039E-05,1.99817E-06,0.23197541,2.141983835,0.001330969,-0.003596917,-0.332168079
name_3,A,15,0.000671349,-5.49696E-06,1.75289E-06,0.335658283,1.713254836,0.002927492,-0.001643079,0.169851319
name_3,C,1,-0.001982433,-2.59701E-05,4.28517E-06,-0.248088287,1.777392064,0.000875273,-0.005505723,-0.501555673
name_3,C,2,0.000876728,-3.53176E-06,1.42737E-06,0.921876754,2.791717451,0.003613143,-0.001250187,0.221812201
name_3,C,3,-0.002247847,-1.75056E-05,2.21045E-06,0.627073796,2.267556937,0.000827228,-0.004056694,-0.568705272
name_3,C,4,-0.00077214,-7.79882E-06,5.42894E-07,0.61442056,2.078157788,0.000766025,-0.001641862,-0.195351402
name_3,C,5,-0.00085348,-7.18402E-06,4.27678E-07,0.716682232,2.302814088,0.000557428,-0.001555513,-0.215930328
name_3,C,6,0.000435254,-2.26527E-06,2.16916E-07,0.26177258,1.76087629,0.001227764,-0.000643077,0.110119254
name_3,C,7,-0.000527967,-5.30271E-06,2.55714E-07,0.321164973,1.581573288,0.000349267,-0.001127551,-0.133575533
name_3,C,8,0.000293728,-2.62988E-06,1.66493E-07,0.069768247,1.801085834,0.000993263,-0.000303357,0.074313171
name_3,C,9,0.00045571,-2.22203E-06,2.13088E-07,0.372075689,2.077091439,0.001338931,-0.000414729,0.115294542
name_3,C,10,0.000247077,-4.04243E-06,2.35615E-07,0.299586085,1.69960892,0.001142384,-0.000480163,0.062510523
name_3,C,11,-0.00037278,-9.69529E-06,6.4306E-07,-0.155205672,1.474282063,0.000848104,-0.001508405,-0.094313225
name_3,C,12,-0.001783468,-1.42501E-05,1.27547E-06,0.526772435,2.034818535,0.000372851,-0.003128915,-0.451217324
name_3,C,13,5.99539E-05,-4.79477E-06,3.10403E-07,0.263285369,1.641839784,0.001001306,-0.000685913,0.015168337
name_3,C,14,-0.000477839,-4.44784E-06,1.72012E-07,0.181119662,1.666658263,0.000240623,-0.001073748,-0.120893291
name_3,C,15,-0.00107798,-1.54418E-05,1.56573E-06,-0.08715125,1.609078523,0.000816915,-0.003055646,-0.272728951
name_4,B,1,0.001868768,6.98964E-06,4.67057E-07,-1.288243798,5.396959532,0.002874732,-0.000595732,0.472798232
name_4,B,2,0.000318198,-6.43463E-06,4.3049E-07,-0.713198306,2.560532363,0.00130553,-0.001030545,0.080504082
name_4,B,3,0.000854435,2.43022E-06,1.07754E-07,-1.249993034,4.203229627,0.001320136,-0.000149815,0.216171995
name_4,B,4,0.001400753,-3.13032E-06,6.86251E-07,-0.937186173,2.254086792,0.002151565,-0.000584011,0.354390418
name_4,B,5,0.001897475,-3.07944E-06,7.79447E-07,-0.846840639,3.664703139,0.003311114,-0.001104823,0.480061262
name_4,B,6,0.001255993,1.83522E-06,1.65416E-07,-2.189115233,7.783953837,0.001674927,-0.000359659,0.317766169
name_4,B,7,0.001777529,-2.10877E-06,5.99923E-07,-0.7797777,3.716249218,0.002991749,-0.000817048,0.449714958
name_4,B,8,0.000794387,-1.06341E-06,1.35621E-07,-0.929281893,3.47156312,0.001321959,-0.000411617,0.200979955
name_4,B,9,0.00179678,-6.08128E-07,5.30598E-07,-1.185812509,3.823327342,0.002700145,-0.000559538,0.454585301
name_4,B,10,0.000833579,-7.65755E-06,7.4159E-07,0.48772944,2.419047717,0.002548715,-0.000803085,0.21089539
name_4,B,11,0.001673005,-5.0086E-06,7.84168E-07,-0.449876703,3.212340685,0.003260754,-0.001050678,0.423270204
name_4,B,12,0.002054732,4.07913E-06,4.44912E-07,-2.175697515,7.580188654,0.002646255,-0.000538628,0.519847201
name_4,B,13,0.002438584,-2.23975E-06,9.7263E-07,-0.960318056,4.176317528,0.003912422,-0.000940658,0.616961673
name_4,B,14,0.00322604,5.39727E-06,1.10917E-06,-2.145774359,8.664118625,0.004550494,-0.001313372,0.816188137
name_4,B,15,0.005123232,1.29876E-05,2.76357E-06,-2.163346738,8.310431446,0.006946043,-0.001838287,1.29617757
name_4,C,1,0.003051347,1.55486E-05,1.83374E-06,-0.359825309,3.001577498,0.005035257,-0.00067202,0.771990718
name_4,C,2,9.13238E-05,5.77036E-07,7.94215E-07,-0.059358029,1.502059316,0.001310579,-0.001282004,0.023104911
name_4,C,3,-0.000144775,-8.25788E-07,7.72313E-07,0.090960244,1.551157196,0.00125162,-0.001494531,-0.036628142
name_4,C,4,0.000754508,3.92165E-06,8.1936E-07,0.302380266,1.798910308,0.002408283,-0.000761432,0.190890477
name_4,C,5,0.001381998,4.22573E-06,9.3061E-07,0.001127252,1.790382009,0.002913158,-0.000836179,0.349645529
name_4,C,6,0.000756643,1.76014E-06,3.94278E-07,-0.059248736,1.649490203,0.001698841,-0.000317432,0.191430756
name_4,C,7,0.000526654,1.15331E-06,8.7181E-07,-0.025174106,1.680176518,0.001931257,-0.001007955,0.133243396
name_4,C,8,-1.54624E-05,-1.06714E-07,1.65109E-07,-0.308234095,1.771233411,0.00052115,-0.000731758,-0.003911993
name_4,C,9,0.000432007,1.04104E-06,3.73405E-07,0.010793321,1.599416024,0.001364374,-0.000497998,0.109297876
name_4,C,10,0.000545092,4.68192E-06,9.14506E-07,0.145621663,2.045256073,0.002201542,-0.00097844,0.137908229
name_4,C,11,0.001194348,8.0183E-06,9.0347E-07,0.667486162,2.359415297,0.00306461,-0.000432674,0.302170063
name_4,C,12,0.000650518,2.31389E-06,6.0105E-07,0.216204735,1.467011689,0.001883741,-0.000462045,0.164581146
name_4,C,13,0.000297893,3.22259E-06,7.33556E-07,0.163293208,2.084173379,0.001858237,-0.001157091,0.075366906
name_4,C,14,0.001279128,5.25382E-06,8.08077E-07,0.043472465,1.682205929,0.002679175,-0.000671182,0.323619289
name_4,C,15,0.004408581,1.085E-05,2.72582E-06,-1.343337625,4.953218539,0.006267962,-0.001615107,1.115371093
name_4,A,1,0.001474852,-4.39189E-06,6.4227E-07,0.132461267,2.751991205,0.002993718,-0.000627093,0.373137631
name_4,A,2,-0.000185998,-1.251E-06,2.42267E-07,-0.330248964,2.351382052,0.000698284,-0.001206047,-0.047057415
name_4,A,3,-0.000246235,3.56215E-06,3.42597E-07,0.81363005,2.715771237,0.0010549,-0.001036493,-0.062297366
name_4,A,4,-0.000690167,-1.6092E-06,3.73411E-07,-0.388872922,2.291484388,0.000225318,-0.001923857,-0.174612243
name_4,A,5,9.98134E-05,8.09328E-07,1.93651E-07,-0.374058071,3.039565901,0.000943216,-0.000848816,0.0252528
name_4,A,6,-0.00031527,-7.32709E-07,1.58387E-07,-0.506914821,2.16951368,0.000270156,-0.001093394,-0.079763303
name_4,A,7,-4.07134E-05,5.92905E-07,2.18078E-07,-0.280191186,2.863761924,0.000852179,-0.001002235,-0.010300499
name_4,A,8,-0.000182033,-1.30068E-08,6.76574E-08,-0.273077621,2.229761194,0.000255042,-0.000682788,-0.046054409
name_4,A,9,-0.000318038,-1.27826E-06,1.78696E-07,-0.550775195,2.188065547,0.000257054,-0.001158479,-0.080463724
name_4,A,10,1.52378E-06,4.40998E-07,4.20501E-08,0.112854362,3.082105255,0.000444916,-0.000408367,0.000385516
name_4,A,11,0.000368528,2.23554E-06,1.14286E-07,0.465107777,2.683700024,0.001097555,-0.000189267,0.093237672
name_4,A,12,4.03772E-05,2.46559E-06,2.97205E-07,0.137544969,2.752828471,0.001138163,-0.000991061,0.010215421
name_4,A,13,-0.000273263,4.65512E-07,2.19544E-07,-0.063655144,2.58407254,0.000636612,-0.001186651,-0.069135429
name_4,A,14,0.000612203,4.28349E-06,2.05388E-07,0.745616932,2.59345042,0.001574633,-0.0001412,0.154887365
name_4,A,15,0.00163972,-4.78984E-06,8.77877E-07,0.566271148,3.069065285,0.003645187,-0.000541803,0.41484905
name_5,C,1,0.000353556,-3.32021E-07,1.01553E-07,-0.488003028,2.12340584,0.000749915,-0.00035494,0.089449642
name_5,C,2,0.000347108,-2.74175E-06,2.15314E-07,0.046073211,2.236465979,0.001242077,-0.000565138,0.087818325
name_5,C,3,0.000527393,4.02696E-06,4.25364E-07,0.673131687,1.907421545,0.001743641,-0.000194222,0.13343037
name_5,C,4,0.000317062,-4.60811E-06,2.53882E-07,1.142623126,3.097185934,0.001494936,-0.000473607,0.080216753
name_5,C,5,0.000891105,2.23298E-06,2.05426E-07,-0.090016412,2.431719657,0.001626487,-0.000219486,0.225449685
name_5,C,6,0.000658608,5.03445E-06,6.12405E-07,0.574756387,1.874756707,0.002100826,-0.000317107,0.166627872
name_5,C,7,0.00071337,2.22173E-06,1.20323E-07,-0.809302287,3.15135561,0.001163622,-0.000427782,0.180482667
name_5,C,8,0.000768555,6.28446E-06,3.87181E-07,0.164478007,1.573004718,0.001754671,-7.11151E-05,0.194444509
name_5,C,9,0.000598131,2.36762E-06,4.47176E-07,0.282374127,1.718244164,0.001720676,-0.000450003,0.151327086
name_5,C,10,0.0007997,4.58323E-06,2.41329E-07,0.220341238,1.844229826,0.001618754,-0.000197199,0.202324174
name_5,C,11,0.000904345,4.25146E-06,2.55431E-07,0.035244985,1.889144426,0.001680045,-0.000122854,0.228799172
name_5,C,12,0.000584328,1.97874E-06,2.08433E-07,0.298806316,1.747800222,0.001346954,-0.000115399,0.147834953
name_5,C,13,0.000673653,-6.72161E-06,7.0816E-07,1.032941946,3.017527179,0.002608403,-0.000721538,0.170434258
name_5,C,14,0.000609969,-4.16204E-06,2.63543E-07,0.675312267,2.675529606,0.001735433,-0.000440183,0.154322097
name_5,C,15,0.000738896,-8.44751E-06,9.94235E-07,0.972279227,2.767753749,0.002953451,-0.000611877,0.186940717
name_5,A,1,0.00185817,9.77587E-07,6.08675E-07,-0.953755594,3.041225104,0.002764441,-0.000269699,0.470117023
name_5,A,2,0.003070574,-2.00155E-06,1.90403E-06,-0.500092274,2.681308821,0.005256792,-0.000374946,0.776855114
name_5,A,3,0.000465117,-1.19078E-05,1.51034E-06,-0.676087442,2.292377466,0.002148081,-0.002026186,0.117674702
name_5,A,4,0.002532227,1.54871E-07,1.1909E-06,-0.659133371,2.923908964,0.004141762,-0.000191116,0.640653553
name_5,A,5,0.001496813,-5.45349E-06,1.08561E-06,-0.350294372,1.640379808,0.002950985,-0.000301451,0.37869362
name_5,A,6,0.000662538,-8.22476E-06,1.02431E-06,-0.958853986,2.655738862,0.001763012,-0.001629121,0.167622053
name_5,A,7,0.002240775,-3.95767E-07,9.72733E-07,-0.673014191,2.703931064,0.003641835,-0.000245683,0.56691611
name_5,A,8,0.000689864,-6.08772E-06,6.59004E-07,-0.763801426,2.238577421,0.001620221,-0.000982346,0.174535688
name_5,A,9,0.000504495,-1.55701E-05,2.51622E-06,-0.839885197,2.313296977,0.002293693,-0.002818204,0.127637227
name_5,A,10,0.001530614,-4.03151E-06,8.00301E-07,-0.411051959,1.728829496,0.002715379,-0.000350985,0.387245243
name_5,A,11,0.000990431,-9.05629E-06,1.1965E-06,-0.551607635,1.85522696,0.002379349,-0.001129042,0.25057904
name_5,A,12,0.000974316,-8.16339E-06,1.12825E-06,-0.733689214,2.06007787,0.002055141,-0.00118545,0.246501843
name_5,A,13,0.004654711,6.54779E-06,2.98708E-06,-1.435396037,4.547095014,0.006579921,-0.000452423,1.177641993
name_5,A,14,0.003007801,1.64519E-06,1.5581E-06,-0.931742623,3.093190323,0.004329631,-0.000368473,0.760973658
name_5,A,15,0.00412922,6.59911E-06,2.55059E-06,-1.318236376,4.08457381,0.005914403,-0.000275532,1.044692715
name_5,B,1,0.000200132,-1.19962E-05,1.26106E-06,0.057716573,1.913242198,0.002139845,-0.001459336,0.050633341
name_5,B,2,0.000657539,-1.41602E-05,2.14143E-06,0.392497771,2.131892108,0.003472761,-0.001431478,0.166357421
name_5,B,3,-0.00172437,-2.37269E-05,3.46393E-06,-0.808172872,2.27394353,0.000273748,-0.005429285,-0.436265487
name_5,B,4,0.000834247,-1.12791E-05,1.59108E-06,0.598540164,2.179165513,0.003324616,-0.00079345,0.211064569
name_5,B,5,-0.000947039,-1.86318E-05,2.19976E-06,-0.534376626,1.919154086,0.000986032,-0.003465396,-0.239600744
name_5,B,6,-0.001814871,-2.14653E-05,2.76816E-06,-0.781481046,2.355204181,8.9465E-05,-0.005188528,-0.459162363
name_5,B,7,-0.000161868,-1.44449E-05,1.60557E-06,0.205341837,1.937728656,0.002095399,-0.001923704,-0.040952657
name_5,B,8,-0.00148779,-1.57645E-05,1.37411E-06,-0.302620717,1.764800773,3.46838E-05,-0.003369754,-0.376410816
name_5,B,9,-0.00195253,-2.29392E-05,2.96825E-06,-0.39639518,1.755156838,0.000145121,-0.004899714,-0.493990169
name_5,B,10,-0.000795019,-1.26855E-05,9.86001E-07,-0.076498354,1.50864224,0.000643476,-0.002183001,-0.201139747
name_5,B,11,-0.001609053,-1.7201E-05,1.68048E-06,0.021130428,1.490414026,0.000164519,-0.003339995,-0.407090523
name_5,B,12,-0.001622334,-1.54222E-05,1.30664E-06,-0.020316157,1.710905435,9.23643E-05,-0.003352232,-0.410450479
name_5,B,13,0.001514507,-6.4018E-06,1.68717E-06,0.706012919,2.485018593,0.004253953,-0.000303552,0.383170361
name_5,B,14,0.000271515,-8.74909E-06,7.97654E-07,0.484749464,2.184214705,0.00200496,-0.000996663,0.068693241
name_5,B,15,0.001861379,-4.84852E-06,1.5941E-06,0.583792592,2.439887794,0.004448742,-0.000284825,0.470928816
name_6,C,1,0.000301599,3.19652E-06,7.12399E-08,0.741742609,2.242666213,0.000842361,-7.93887E-06,0.076304488
name_6,C,2,0.000771279,1.54855E-05,1.50335E-06,0.389750558,1.543217822,0.002773925,-0.000783991,0.195133474
name_6,C,3,-0.000594882,1.83043E-06,1.31351E-07,-0.505974579,2.735564601,0.000219112,-0.001371167,-0.150505072
name_6,C,4,0.000308772,7.46331E-06,3.52209E-07,0.431662749,1.650971545,0.001347325,-0.000449299,0.078119277
name_6,C,5,-0.000520789,-9.5084E-07,6.62688E-08,0.020758462,2.64100928,2.53441E-05,-0.001014498,-0.131759518
name_6,C,6,-0.000333288,-5.50001E-07,9.83483E-08,0.20325204,2.206570098,0.000294701,-0.000849192,-0.084321903
name_6,C,7,0.00033847,8.30363E-06,4.33469E-07,0.264440934,1.647320167,0.001566255,-0.000603287,0.08563289
name_6,C,8,-0.000123837,1.3141E-07,6.56224E-08,0.295501249,2.204403603,0.000398334,-0.000531779,-0.031330827
name_6,C,9,5.13663E-05,2.69251E-06,6.81024E-08,0.325921826,1.787838899,0.000508101,-0.000331037,0.012995667
name_6,C,10,0.001111364,1.19807E-05,8.26874E-07,-0.103750265,1.481431978,0.002275535,-0.000269461,0.281175188
name_6,C,11,0.000334164,8.20333E-06,4.66592E-07,0.322904155,1.679755995,0.001446996,-0.000577049,0.084543399
name_6,C,12,0.00035254,6.56071E-06,3.35391E-07,-0.31924464,1.95091856,0.001104656,-0.000737098,0.089192593
name_6,C,13,0.000634324,1.6585E-05,1.8857E-06,0.314522852,1.730598828,0.00293647,-0.001171539,0.160483963
name_6,C,14,0.000284119,7.18862E-06,3.50244E-07,0.407060983,1.94173876,0.001234922,-0.000595832,0.071882066
name_6,C,15,0.000284558,1.10885E-05,8.19988E-07,0.424800494,1.710613925,0.001958019,-0.000845104,0.071993179
name_6,B,1,-3.74676E-05,4.53348E-07,6.08456E-09,-0.417946203,2.250264569,7.6706E-05,-0.000190236,-0.009479297
name_6,B,2,-0.001102161,-3.94407E-06,1.91053E-07,1.385193959,3.882166702,0.000217261,-0.001573428,-0.278846745
name_6,B,3,-0.000646412,-4.62357E-06,1.63454E-07,0.469170025,2.074138597,6.42409E-05,-0.001251162,-0.163542315
name_6,B,4,0.00013216,-1.55432E-08,3.72183E-08,0.167851343,1.670298868,0.000480041,-0.000189328,0.033436401
name_6,B,5,-0.000104666,-1.63562E-06,6.30614E-08,0.141863967,2.252988251,0.000376897,-0.000551899,-0.026480404
name_6,B,6,0.000126077,5.49199E-07,3.25394E-08,0.047318729,2.281973807,0.000485659,-0.000218478,0.03189736
name_6,B,7,0.000296092,1.16196E-06,3.6086E-08,0.11820612,1.820273032,0.000618918,-7.01579E-05,0.074911192
name_6,B,8,-0.000929687,-6.70253E-06,2.94416E-07,0.165148975,1.861358893,0.000127674,-0.001746212,-0.235210825
name_6,B,9,-1.51438E-05,8.02463E-07,5.5547E-08,0.32825453,2.372421335,0.000470967,-0.000407514,-0.003831385
name_6,B,10,7.05683E-05,-4.78513E-08,6.30011E-08,0.053723845,2.31768106,0.00052971,-0.000396654,0.017853775
name_6,B,11,-3.85695E-05,2.39892E-06,7.54933E-08,0.180245375,1.975343957,0.000420173,-0.000473584,-0.009758086
name_6,B,12,-0.00021485,-1.43599E-06,3.95266E-08,-0.115049916,1.814716053,0.000109882,-0.000591855,-0.054357131
name_6,B,13,-0.001874131,-1.21866E-05,1.10521E-06,-0.057477662,1.945881161,9.63165E-05,-0.003613215,-0.474155124
name_6,B,14,-0.000826395,-5.52678E-06,2.70357E-07,0.95560909,2.277306591,0.000184678,-0.001475731,-0.20907789
name_6,B,15,-0.000510461,-2.89611E-06,7.38065E-08,0.285281549,1.894216878,4.57289E-05,-0.000916956,-0.129146535
name_6,A,1,-0.000297734,-2.00417E-06,5.54461E-08,0.779512662,2.462612751,0.000202718,-0.000583933,-0.075326759
name_6,A,2,0.000321694,8.09918E-06,5.56262E-07,-0.330830361,1.543733823,0.001206578,-0.000933559,0.081388486
name_6,A,3,0.000102706,1.80977E-06,2.85762E-07,0.63332565,2.976381415,0.001294687,-0.000794283,0.025984641
name_6,A,4,-0.000663627,-2.97577E-06,1.70479E-07,0.924318198,2.85424038,0.000264497,-0.001185877,-0.16789752
name_6,A,5,-0.000685703,-6.02146E-06,3.81674E-07,0.327650096,1.754423035,0.000434718,-0.001570466,-0.173482781
name_6,A,6,-0.000653599,-2.18919E-06,6.75133E-07,-0.050171846,2.050592373,0.000788114,-0.00219208,-0.165360478
name_6,A,7,-0.000754329,-2.41652E-06,1.36766E-07,0.606460064,2.200435834,1.47421E-05,-0.001293066,-0.190845207
name_6,A,8,-0.002587461,-2.00653E-05,2.30678E-06,0.35677066,2.06450316,0.000106639,-0.004727402,-0.654627682
name_6,A,9,-8.60839E-05,2.32297E-06,5.28062E-07,0.047050206,2.767119008,0.001340491,-0.001479145,-0.021779228
name_6,A,10,-0.001053005,-7.77085E-06,3.8096E-07,-0.262367159,2.405008065,7.45719E-05,-0.002158435,-0.266410242
name_6,A,11,-0.001121794,-1.27288E-06,3.06503E-07,0.104760384,2.742798147,8.21667E-05,-0.002108788,-0.2838139
name_6,A,12,-0.000506797,-1.09792E-06,1.71846E-07,-0.17841968,1.83356781,9.8896E-05,-0.001270137,-0.128219667
name_6,A,13,-0.001512712,-1.8817E-05,2.21175E-06,-0.745963772,1.9519905,1.1619E-05,-0.004071319,-0.382716053
name_6,A,14,-0.001061961,-1.00306E-05,6.98802E-07,0.634553891,2.102565874,0.000541423,-0.002083964,-0.26867618
name_6,A,15,-0.000426941,-2.20348E-06,7.26453E-08,0.036547903,1.93804438,5.04349E-05,-0.000904801,-0.108016168
name_8,A,1,-0.001806537,-1.73236E-05,1.90668E-06,0.808936265,2.354194527,0.001030962,-0.003455869,-0.457053986
name_8,A,2,-0.00159268,-1.72324E-05,2.47569E-06,1.154255401,3.213743213,0.002151646,-0.003595224,-0.402948068
name_8,A,3,-0.001453143,-1.08811E-05,9.07513E-07,0.781532802,2.633660565,0.000621165,-0.003110891,-0.367645144
name_8,A,4,-0.000199343,-8.26588E-06,9.06373E-07,1.230411069,3.33929648,0.002129571,-0.001188252,-0.050433682
name_8,A,5,-0.002653524,-2.0475E-05,2.75982E-06,0.844308808,2.539060079,0.000848643,-0.0050162,-0.671341456
name_8,A,6,-0.000550518,-5.70974E-06,2.80208E-07,-0.526203682,2.779364924,0.000148078,-0.002081983,-0.139281118
name_8,A,7,0.000647766,-5.57615E-06,6.52966E-07,1.15734505,3.625256485,0.002646092,-0.001185916,0.163884787
name_8,A,8,-0.00214266,-1.72213E-05,1.70838E-06,0.348137184,2.384281068,0.000326702,-0.004461067,-0.542092907
name_8,A,9,-0.001859144,-8.03473E-06,5.23618E-07,0.968575163,4.301597694,0.000265158,-0.003264989,-0.47036355
name_8,A,10,-0.001101241,-9.64197E-06,7.94241E-07,1.191041691,3.011176742,0.000932566,-0.00219139,-0.278613976
name_8,A,11,-0.002779382,-1.54308E-05,1.54459E-06,0.805284707,3.247220449,4.41113E-05,-0.004990773,-0.703183771
name_8,A,12,-0.002083962,-1.06131E-05,7.34058E-07,0.972881244,3.421307501,0.000149088,-0.003185945,-0.527242442
name_8,A,13,-0.001168289,-1.27056E-05,1.30311E-06,1.04698526,2.919371952,0.001404843,-0.002810698,-0.295577141
name_8,A,14,-0.002293284,-2.27651E-05,2.93565E-06,0.22040122,2.075233074,0.000753809,-0.005198959,-0.580200974
name_8,A,15,-0.000883541,-1.13503E-05,8.18601E-07,0.515685503,2.499774636,0.000955345,-0.002379868,-0.22353588
name_8,C,1,0.000922698,1.69854E-05,3.42953E-06,-0.024723517,1.661185007,0.003553974,-0.001979442,0.233442594
name_8,C,2,0.001193444,1.9403E-05,8.04537E-06,-0.632701355,1.991591423,0.004375663,-0.004218088,0.301941348
name_8,C,3,0.001292549,2.21898E-05,3.88721E-06,0.120887308,1.49335467,0.004112359,-0.001581576,0.327014785
name_8,C,4,-0.000447594,-5.26861E-06,2.63333E-06,0.134725902,2.391223254,0.002695259,-0.003189461,-0.113241403
name_8,C,5,0.001628666,2.0966E-05,3.89945E-06,0.204915966,1.714372425,0.004741245,-0.001304776,0.412052589
name_8,C,6,0.001095458,2.29638E-05,3.29274E-06,0.275437116,1.399553825,0.003714292,-0.00107642,0.277150794
name_8,C,7,-0.001494875,-1.48524E-05,5.82734E-06,0.774563642,2.589483985,0.003709461,-0.004634858,-0.378203323
name_8,C,8,0.000258425,1.13218E-05,1.59979E-06,0.459330675,1.928867002,0.002590961,-0.001434048,0.065381618
name_8,C,9,0.00024329,1.4244E-05,1.42508E-06,-0.278270186,2.099503221,0.002280943,-0.001920349,0.061552349
name_8,C,10,-0.000786333,-1.35909E-05,3.7751E-06,0.926963563,2.661480225,0.003470066,-0.003049863,-0.198942309
name_8,C,11,0.000555776,5.98889E-06,4.06037E-07,0.284043478,2.36624314,0.00206456,-0.000443374,0.140611349
name_8,C,12,0.000680934,9.09293E-06,5.36045E-07,0.216999538,1.952435183,0.002369268,-0.000336419,0.172276376
name_8,C,13,-0.000457499,-1.35174E-05,2.95748E-06,1.035245504,2.804492126,0.003356874,-0.002515496,-0.115747194
name_8,C,14,0.000453863,8.2318E-06,1.00431E-06,0.013671136,2.38895924,0.002648122,-0.001268235,0.114827433
name_8,C,15,0.000230371,3.02415E-06,8.16027E-07,-0.14356076,1.549413267,0.001493368,-0.001166291,0.058283846
name_8,B,1,-0.000581758,-1.42947E-05,1.68351E-06,0.936530003,2.647804854,0.002209854,-0.002294365,-0.147184764
name_8,B,2,0.000144669,-2.59739E-05,6.09068E-06,0.912339418,2.351645002,0.005256947,-0.002457844,0.036601372
name_8,B,3,6.9552E-05,-2.32958E-06,1.81554E-07,0.047148907,1.788574268,0.00079735,-0.000609696,0.017596648
name_8,B,4,0.001579858,-2.69182E-06,1.55076E-06,0.459530895,2.56341529,0.004207941,-0.000944852,0.399704179
name_8,B,5,0.000940033,2.87091E-06,1.16827E-06,-0.452079759,1.839313215,0.00244564,-0.001040634,0.23782824
name_8,B,6,-0.000605365,-4.28844E-08,1.04614E-07,0.546123836,2.834766081,0.000351321,-0.001141926,-0.153157468
name_8,B,7,0.000926444,-1.24818E-05,2.65618E-06,1.239084446,3.159065983,0.004749748,-0.001420919,0.234390442
name_8,B,8,-0.000923573,-8.61306E-06,5.3903E-07,0.399564431,1.453138729,0.000235998,-0.001971512,-0.233663909
name_8,B,9,-0.001393491,-7.80798E-06,4.3781E-07,0.840487403,3.04308975,0.000758127,-0.00220748,-0.352553191
name_8,B,10,-0.000465512,-2.33965E-05,4.52771E-06,0.903501723,2.544561783,0.004035308,-0.003362805,-0.117774524
name_8,B,11,-0.002391796,-2.07796E-05,2.54709E-06,0.450389485,1.539945329,0.000210551,-0.004373907,-0.605124448
name_8,B,12,-0.002659,-1.96091E-05,2.3448E-06,0.686305165,1.843834366,1.33401E-05,-0.004206885,-0.672726924
name_8,B,13,0.000351947,-1.73871E-05,3.11853E-06,1.053128578,2.766728322,0.004250448,-0.001887209,0.089042534
name_8,B,14,-0.002125347,-2.37689E-05,3.7002E-06,0.732882321,1.922421534,0.001458164,-0.003941712,-0.537712759
name_8,B,15,-0.000314732,-9.38061E-06,8.71104E-07,1.156290598,2.809309355,0.001770922,-0.001173673,-0.079627267
name_7,A,1,-0.000601887,-1.13983E-06,8.32329E-08,0.341428216,2.937227236,1.05476E-05,-0.001122593,-0.152277458
name_7,A,2,0.000478426,6.86573E-06,3.93298E-07,0.002397481,1.445767737,0.001408402,-0.000393549,0.121041659
name_7,A,3,-0.000415472,-7.82809E-07,9.02347E-08,-0.101997543,1.763315865,1.40766E-05,-0.000949709,-0.105114484
name_7,A,4,2.0318E-05,2.96259E-06,2.63616E-07,-0.488397906,2.432463579,0.000804863,-0.001009073,0.00514045
name_7,A,5,3.147E-05,1.537E-06,1.90219E-07,-0.167765165,2.561849758,0.000801835,-0.000831884,0.007961918
name_7,A,6,-0.0002451,-4.38637E-07,6.49302E-08,-0.282916257,2.090367632,0.000140465,-0.000746736,-0.062010187
name_7,A,7,0.000151818,3.95141E-06,2.39824E-07,-0.220483196,1.971608516,0.000902782,-0.000708966,0.038409845
name_7,A,8,-0.000417113,-6.51997E-07,8.29381E-08,-0.179579788,1.971508963,1.05949E-05,-0.000955888,-0.105529568
name_7,A,9,-0.000497433,1.55675E-06,1.88014E-07,-0.450813857,2.064919818,8.86767E-05,-0.001301698,-0.125850534
name_7,A,10,-0.000550589,7.39029E-07,1.04507E-07,-0.553572565,2.675975618,3.49521E-05,-0.001224431,-0.139298961
name_7,A,11,-0.000772481,-4.34809E-07,2.83652E-07,0.106404648,1.919440393,0.000133126,-0.001678172,-0.195437628
name_7,A,12,-0.000372689,1.18872E-06,1.73974E-07,-0.282349755,2.066268311,0.000261309,-0.001138235,-0.094290292
name_7,A,13,-0.000572802,-4.22854E-09,1.40104E-07,-0.592462222,2.618954413,3.30947E-05,-0.001346498,-0.144918938
name_7,A,14,-0.000321354,1.97597E-06,2.0519E-07,-0.401051226,2.193885304,0.000370839,-0.001173737,-0.081302474
name_7,A,15,-0.000158337,2.34216E-06,1.21404E-07,-0.966375304,2.451189496,0.000180499,-0.000890161,-0.040059351
name_7,B,1,-0.000830297,-6.46595E-08,2.10084E-07,0.248664026,2.149035659,0.000109,-0.001559974,-0.210065192
name_7,B,2,0.001224713,1.02138E-05,6.08627E-07,0.033346753,1.693469447,0.002350748,-8.50991E-05,0.309852425
name_7,B,3,0.000524143,2.73849E-06,8.75944E-08,-0.296128653,1.705145441,0.000914742,-1.05321E-05,0.132608141
name_7,B,4,0.000600018,2.57964E-06,6.49754E-08,-0.687376143,3.254319386,0.000986749,-0.000161844,0.151804615
name_7,B,5,0.00083503,2.66834E-06,1.42191E-07,-0.692732153,2.603389606,0.001341467,-0.000179765,0.211262475
name_7,B,6,0.000912883,4.6575E-06,1.75032E-07,-0.584520232,2.740289642,0.001545026,-1.98739E-05,0.230959416
name_7,B,7,-6.66221E-05,-1.08105E-07,5.22276E-08,-0.721146027,2.555642884,0.000244479,-0.000558715,-0.016855397
name_7,B,8,-0.000546224,-3.86526E-06,1.15399E-07,0.56686753,1.881591775,4.29123E-05,-0.000966633,-0.138194788
name_7,B,9,0.000156156,2.25581E-06,3.7632E-08,0.779461062,2.023609781,0.000525435,-6.28519E-05,0.039507545
name_7,B,10,-0.001375664,-7.6553E-06,5.05086E-07,1.119903183,3.025810869,0.000230383,-0.002174836,-0.348042927
name_7,B,11,-0.000258472,-4.42264E-06,1.84503E-07,-0.346462963,1.854956352,0.000328947,-0.001075599,-0.065393374
name_7,B,12,0.001248903,6.00202E-06,2.97313E-07,-0.903212481,2.995113866,0.001913226,-3.40966E-05,0.315972482
name_7,B,13,0.000121065,-1.57205E-06,1.3481E-07,-0.363515341,2.094704831,0.000663644,-0.000589796,0.030629473
name_7,B,14,0.000868001,3.78723E-06,1.64768E-07,-0.548809803,2.426317783,0.001458948,-8.76461E-05,0.219604322
name_7,B,15,0.00013959,1.00425E-06,2.03869E-08,0.413257379,2.576408307,0.000442677,-0.000102264,0.035316311
name_7,C,1,-0.000368109,2.35961E-06,4.48125E-07,-0.355660529,1.861111458,0.000560927,-0.001575233,-0.093131694
name_7,C,2,0.000276004,2.58225E-06,1.32695E-07,0.304054291,2.944318927,0.001310768,-0.000349779,0.069829081
name_7,C,3,0.00043759,7.62722E-07,6.13848E-08,-0.135136522,2.561880856,0.000866943,-0.00029176,0.11071038
name_7,C,4,0.000842294,6.48601E-08,1.37407E-07,-0.793626735,4.163300591,0.001407143,-0.000522661,0.213100415
name_7,C,5,0.000983914,-2.34074E-07,2.1741E-07,-0.577086944,3.161739187,0.001647992,-0.000545534,0.24893035
name_7,C,6,0.000997828,4.03023E-06,1.77699E-07,-0.531480492,3.449297581,0.001679636,-0.00025291,0.25245055
name_7,C,7,1.87737E-05,-2.98925E-06,1.42684E-07,0.865063371,2.817260414,0.000888921,-0.000502254,0.004749758
name_7,C,8,-7.22339E-05,-2.5274E-06,9.05356E-08,0.696524398,2.715588724,0.000601335,-0.000507697,-0.018275184
name_7,C,9,0.000223418,3.46116E-07,3.00745E-08,-0.215928035,2.032909502,0.000484889,-0.000218964,0.056524789
name_7,C,10,-0.001318139,-7.88311E-06,6.40493E-07,1.267233776,3.20254666,0.000562217,-0.002050713,-0.33348912
name_7,C,11,-0.000527414,-5.98072E-06,3.08828E-07,1.158371758,3.198053734,0.000782351,-0.001195226,-0.133435708
name_7,C,12,0.00110383,3.05329E-06,1.54237E-07,-1.420312505,5.895293244,0.001658409,-0.000358905,0.279268947
name_7,C,13,-0.000133217,-4.23286E-06,2.55341E-07,0.896480993,2.855407908,0.001028532,-0.000766342,-0.033703898
name_7,C,14,0.000951075,1.69133E-06,1.2543E-07,-1.319677698,5.796164134,0.001450386,-0.000440581,0.240621867
name_7,C,15,0.000520951,2.36007E-06,6.40538E-08,-0.878704861,3.068243791,0.000994201,-0.000261865,0.131800652
name_9,B,1,0.000772986,8.80065E-06,4.83343E-07,0.39157575,1.603801094,0.001899217,-0.000190093,0.195565426
name_9,B,2,-5.36967E-05,7.07989E-06,4.68224E-07,0.24577638,1.639601997,0.00104941,-0.001042996,-0.013585275
name_9,B,3,-0.000940632,-3.14507E-07,2.66853E-07,0.152610273,1.894428894,3.67327E-05,-0.001723761,-0.237979802
name_9,B,4,-0.001117574,-2.52448E-06,1.88312E-07,1.288790729,3.91566521,4.69229E-05,-0.001623019,-0.282746157
name_9,B,5,-0.000843104,-1.94443E-06,1.31155E-07,0.975640116,3.122519644,3.49039E-05,-0.001329173,-0.213305376
name_9,B,6,-0.002059511,-9.83763E-06,7.91966E-07,1.128762244,3.384875055,3.63815E-05,-0.00325492,-0.521056243
name_9,B,7,-0.001515078,-6.90414E-06,3.72577E-07,1.217280279,3.857088603,4.85722E-05,-0.002297084,-0.383314757
name_9,B,8,-0.001876675,-6.38812E-06,5.66943E-07,1.117083177,3.645571718,8.10454E-05,-0.002851415,-0.474798888
name_9,B,9,-0.002838971,-1.61954E-05,1.70443E-06,0.883216396,2.977044153,3.66468E-05,-0.004829817,-0.718259654
name_9,B,10,-0.002134729,-9.96387E-06,8.05615E-07,1.236555054,3.58699846,5.68902E-05,-0.003234539,-0.540086454
name_9,B,11,-0.00197714,-9.02047E-06,6.60665E-07,1.337594965,3.757341832,3.76445E-05,-0.00289104,-0.500216385
name_9,B,12,-0.001907826,-1.21263E-05,9.12654E-07,0.887383755,2.529982917,9.6602E-05,-0.002988683,-0.48268006
name_9,B,13,-0.002030329,-5.81784E-06,5.36131E-07,1.55027265,4.9408025,0.000108894,-0.002882327,-0.513673304
name_9,B,14,-0.002550543,-1.47391E-05,1.33108E-06,0.901333489,2.788166614,6.23718E-05,-0.004049125,-0.645287343
name_9,B,15,-0.001412218,-5.14287E-06,3.24332E-07,1.124736206,3.801767737,3.89698E-05,-0.002191962,-0.357291154
name_9,A,1,0.001795859,1.76258E-05,1.82007E-06,0.006887093,1.746625224,0.004018939,-0.000111632,0.454352407
name_9,A,2,0.001261105,8.3847E-06,6.00432E-07,-0.27064176,1.65748068,0.002297574,-1.08083E-05,0.319059597
name_9,A,3,-0.001405568,-1.67169E-05,1.62762E-06,-0.178520437,1.409307727,0.000237842,-0.003624553,-0.355608762
name_9,A,4,0.001644882,-4.52913E-06,1.37484E-06,-0.360092618,2.607415647,0.003686942,-0.000983381,0.416155057
name_9,A,5,4.195E-05,-6.67704E-06,4.79312E-07,-0.04571207,1.634873454,0.00112547,-0.001230658,0.010613342
name_9,A,6,-0.002401757,-2.46849E-05,3.41346E-06,-0.013079397,1.468465089,0.000266602,-0.00540794,-0.60764458
name_9,A,7,0.00084911,-1.37447E-05,2.07087E-06,-0.314721461,1.847883644,0.002643183,-0.002308382,0.214824855
name_9,A,8,-0.001489806,-1.734E-05,1.77209E-06,0.02797319,1.375971095,0.000525765,-0.003057927,-0.376920975
name_9,A,9,-0.00369354,-2.98369E-05,5.05618E-06,0.289024508,1.726726639,7.45106E-05,-0.006782634,-0.934465711
name_9,A,10,0.000193864,-1.64099E-05,2.26653E-06,-0.150772705,1.5046783,0.002237004,-0.002644616,0.049047664
name_9,A,11,-0.001346322,-1.31132E-05,1.14102E-06,-0.101952232,1.336361307,6.4138E-05,-0.002907852,-0.340619535
name_9,A,12,-0.002255814,-2.37479E-05,3.19502E-06,0.079968931,1.372980592,0.00022924,-0.004857741,-0.570720825
name_9,A,13,0.000588873,-1.11776E-05,1.79691E-06,-0.40016021,2.234739936,0.002687784,-0.002369386,0.148984763
name_9,A,14,-0.002554181,-2.52867E-05,3.6657E-06,-0.004885622,1.403824248,0.000153566,-0.005561953,-0.646207808
name_9,A,15,0.000382432,-4.25601E-06,3.13558E-07,-0.073620065,1.642642503,0.001261811,-0.000571789,0.096755309
name_9,C,1,0.002447878,1.05066E-05,1.16429E-06,-1.18991563,3.118386588,0.00363096,-0.000136694,0.619313216
name_9,C,2,0.002425172,9.55622E-06,7.22381E-07,-1.636836409,5.68582041,0.003495803,-0.000598352,0.6135684
name_9,C,3,0.000399622,-7.14856E-06,5.30728E-07,0.38607435,1.844026453,0.001650826,-0.000632804,0.101104448
name_9,C,4,0.001642324,-6.28712E-06,1.47311E-06,0.504752959,1.994656712,0.003885964,-0.000330094,0.415507912
name_9,C,5,0.001342704,-2.68069E-06,5.02706E-07,0.393251604,3.268837541,0.002825103,-0.000558855,0.339704233
name_9,C,6,-0.000567039,-1.75066E-05,2.14993E-06,0.515805929,1.918560652,0.002125162,-0.002403835,-0.143460891
name_9,C,7,0.000627117,-1.47379E-05,2.59607E-06,0.437114048,1.868145048,0.003515388,-0.001402841,0.158660622
name_9,C,8,-0.000805471,-1.88182E-05,2.46545E-06,0.604874364,1.85473279,0.002074486,-0.002503435,-0.203784167
name_9,C,9,-0.001139048,-2.13745E-05,4.35898E-06,0.953726085,2.357704246,0.003196417,-0.002987607,-0.288179165
name_9,C,10,0.000290652,-1.64176E-05,2.4827E-06,0.322372318,1.685480643,0.002926779,-0.001712948,0.073534892
name_9,C,11,-2.09163E-05,-1.11665E-05,9.49482E-07,0.450026997,1.945542152,0.001748169,-0.001311809,-0.00529183
name_9,C,12,-0.000428419,-1.25034E-05,1.27074E-06,-0.031996524,1.578418832,0.001298506,-0.001957877,-0.108390002
name_9,C,13,0.001415754,-1.31465E-05,2.60858E-06,0.344692812,1.732992409,0.004179039,-0.000696133,0.358185709
name_9,C,14,0.000699192,-1.07993E-05,1.47034E-06,0.482836505,1.699407524,0.00278451,-0.00070076,0.176895589
name_9,C,15,0.001573272,3.82711E-06,3.39987E-07,-1.137049292,4.918070104,0.002405353,-0.000390314,0.398037924
name_10,B,1,0.000562347,8.36428E-06,4.20576E-07,0.486536933,1.956277762,0.00165011,-0.000330762,0.142273905
name_10,B,2,0.000681202,7.22422E-06,3.50469E-07,0.847735487,2.072787735,0.001748678,-7.52036E-05,0.172344181
name_10,B,3,0.000178208,5.29825E-06,2.95839E-07,0.326618739,1.908070201,0.001097546,-0.000605654,0.045086743
name_10,B,4,-0.000298933,2.30319E-06,2.24287E-07,-0.038664884,1.660508834,0.000414414,-0.001032958,-0.075630066
name_10,B,5,-0.000288068,9.15052E-07,3.0032E-07,-0.265780311,1.772974993,0.000644319,-0.001201836,-0.072881207
name_10,B,6,-0.000612819,-5.63851E-07,2.54549E-07,-0.183903783,1.88194358,0.000183224,-0.001453398,-0.155043101
name_10,B,7,-0.000270414,2.35598E-06,4.44094E-07,-0.196305144,1.867697396,0.000910855,-0.001372981,-0.068414722
name_10,B,8,-0.000123344,3.35339E-06,3.08503E-07,0.23106459,1.960122426,0.000957153,-0.000908248,-0.031205922
name_10,B,9,-8.44961E-05,1.2006E-06,1.23157E-07,-0.095779157,1.773232896,0.000505923,-0.000634471,-0.02137752
name_10,B,10,-0.000679173,-4.68573E-06,3.83838E-07,0.503427023,1.754140286,0.000421077,-0.001441561,-0.17183089
name_10,B,11,-0.000181257,-6.46158E-07,1.65746E-07,-0.160506757,1.715709946,0.000605379,-0.000820363,-0.045858067
name_10,B,12,0.00022562,4.18237E-06,2.36162E-07,0.385331028,1.877572702,0.001022465,-0.000459789,0.057081939
name_10,B,13,4.79232E-05,1.64411E-07,4.21148E-07,-0.461987396,1.882610266,0.000966469,-0.00111294,0.012124577
name_10,B,14,0.000131428,2.43302E-06,7.68829E-08,0.326438865,2.012278581,0.000675457,-0.00027036,0.033251376
name_10,B,15,0.000450576,2.21789E-06,1.17949E-07,0.061386224,1.954554158,0.001047643,-0.000246495,0.113995783
name_10,C,1,0.000772757,4.75072E-06,2.99025E-07,-0.817517678,2.26705639,0.001478273,-0.000289701,0.195507585
name_10,C,2,0.000249622,1.19126E-06,9.99581E-09,-1.117832844,3.902022009,0.000410967,-2.94308E-05,0.063154464
name_10,C,3,0.000887953,1.17708E-06,1.01105E-07,-1.312185915,5.483177174,0.001379247,-0.000208886,0.224652093
name_10,C,4,0.000813186,1.47631E-06,7.4617E-08,-1.878859486,6.469735763,0.001176163,-0.000109482,0.205736007
name_10,C,5,0.001046895,2.39359E-06,1.24489E-07,-1.881937655,6.294917759,0.001433789,-0.000179514,0.264864311
name_10,C,6,0.001214987,-1.3268E-06,3.01115E-07,-0.191553306,3.288150246,0.002254727,-0.000229276,0.307391624
name_10,C,7,0.001311002,2.61216E-06,2.23133E-07,-1.324576276,5.131083686,0.002039705,-0.000186334,0.331683624
name_10,C,8,0.001054842,1.64853E-06,1.54079E-07,-1.150148097,4.759711849,0.001697774,-0.000105934,0.266875019
name_10,C,9,0.001037966,3.94638E-07,1.85005E-07,-0.685982817,3.557914544,0.001765502,-5.10548E-05,0.26260528
name_10,C,10,0.001153355,5.12783E-06,2.30058E-07,-1.139925755,3.682999316,0.001825954,-1.82814E-05,0.291798923
name_10,C,11,0.001196711,4.47026E-06,1.89325E-07,-1.753984095,5.053629694,0.001628381,-6.54216E-05,0.302767829
name_10,C,12,0.001244313,1.45355E-06,2.49578E-07,-1.036611219,3.735848425,0.00197193,-5.40767E-05,0.314811296
name_10,C,13,0.001588901,7.30947E-06,4.04266E-07,-1.092031069,3.73866024,0.002532099,-9.0037E-05,0.401991957
name_10,C,14,0.000994955,-5.38771E-08,1.84077E-07,-0.368381929,3.355231663,0.001765268,-9.87155E-05,0.251723535
name_10,C,15,0.00082372,2.32971E-06,8.49078E-08,-1.688033576,5.46888701,0.00128355,-8.78894E-05,0.208401074
name_10,A,1,-0.000860279,2.493E-06,3.51127E-07,-0.049879706,1.437206542,7.25221E-05,-0.001623114,-0.21765068
name_10,A,2,-0.000199047,-2.96239E-07,1.83209E-08,0.263589181,1.735179849,4.80054E-05,-0.00037277,-0.050358858
name_10,A,3,-0.001210933,-8.30701E-06,3.83771E-07,0.268193297,2.1538704,0.000169396,-0.002141519,-0.306366095
name_10,A,4,-0.000498226,3.5407E-07,5.91024E-08,0.144489225,2.707425085,0.000175691,-0.000906862,-0.126051175
name_10,A,5,-0.000747665,-2.30942E-06,7.24604E-08,1.649794434,5.310499974,0.000195805,-0.001039232,-0.189159242
name_10,A,6,-0.000161644,6.45405E-08,4.69791E-08,0.035568041,1.776581658,0.0002798,-0.000518112,-0.040896025
name_10,A,7,-0.000627068,3.71489E-07,1.06359E-07,0.130453606,2.551844927,0.000268994,-0.001167158,-0.158648105
name_10,A,8,-0.000184434,1.96941E-06,7.97273E-08,-0.336547871,1.921535044,0.000223672,-0.0006742,-0.046661905
name_10,A,9,-0.00033101,5.50063E-07,3.51268E-08,-0.147521048,2.553402829,0.000196955,-0.000661151,-0.08374565
name_10,A,10,-0.001420618,-2.52161E-06,3.09812E-07,1.229405864,4.046652831,0.000449595,-0.001964911,-0.359416365
name_10,A,11,-0.000807224,-1.11404E-06,9.32761E-08,1.372124571,4.831632864,0.000304135,-0.001133957,-0.204227648
name_10,A,12,-0.000739375,-1.37268E-06,7.11417E-08,1.599854494,5.937476241,0.000308056,-0.00102517,-0.187061858
name_10,A,13,-0.000629464,-2.82729E-07,7.84384E-08,0.902256131,3.226576431,0.000271983,-0.000945039,-0.159254372
name_10,A,14,-0.000522876,-1.17541E-06,6.07243E-08,0.711272658,3.259105483,0.000319218,-0.000866582,-0.132287663
name_10,A,15,-0.000619455,-2.04136E-07,5.82758E-08,1.062724789,4.276205517,0.000201776,-0.000918056,-0.15672207
name_11,C,1,-0.001726642,-2.20274E-05,2.82227E-06,0.110201652,1.935591241,0.00102926,-0.004974478,-0.436840376
name_11,C,2,,,,,,,,
name_11,C,3,-0.001584118,-2.42053E-05,3.33192E-06,-0.151333615,1.775628002,0.001120557,-0.004877036,-0.400781833
name_11,C,4,-0.00014665,-2.13296E-06,8.55768E-08,0.900040337,3.025137565,0.000532,-0.000573077,-0.037102489
name_11,C,5,0.000294706,-6.67196E-06,4.05705E-07,-0.249854435,2.500683411,0.00142461,-0.001154323,0.074560711
name_11,C,6,-0.00011921,-8.03872E-06,4.36649E-07,-0.335027147,2.312283414,0.000942064,-0.001590327,-0.030160064
name_11,C,7,0.000421644,-3.10295E-07,7.87889E-08,-0.169551564,3.698752984,0.001019869,-0.00053439,0.106675836
name_11,C,8,0.000575284,1.14028E-06,5.64541E-08,-1.238938729,4.824984652,0.000869193,-0.000348002,0.145546764
name_11,C,9,0.000167192,-3.48136E-06,1.25941E-07,0.097813941,2.792496346,0.000870904,-0.000678606,0.042299661
name_11,C,10,0.000347813,-2.45962E-08,3.29714E-08,-0.775515787,4.447963081,0.000668659,-0.00037448,0.087996604
name_11,C,11,0.000163603,-3.96557E-07,1.93616E-08,0.098141322,2.935807464,0.000455455,-0.000254147,0.041391619
name_11,C,12,-0.000500162,-6.26764E-06,2.51504E-07,0.522490535,2.241676934,0.000454527,-0.001428384,-0.126540937
name_11,C,13,-0.000138564,-2.86077E-06,1.15721E-07,1.386561167,3.515468739,0.000693886,-0.000486087,-0.035056781
name_11,C,14,-8.3693E-05,-1.86881E-06,7.47287E-08,0.980810929,3.239606223,0.00055969,-0.000481231,-0.021174331
name_11,C,15,-4.36145E-05,9.06619E-08,1.96486E-08,-0.709374563,2.795366517,0.000185298,-0.000346192,-0.011034471
name_11,A,1,0.004393013,1.53952E-07,5.87525E-06,0.039759673,2.661861876,0.009360887,-0.001353237,1.111432249
name_11,A,2,,,,,,,,
name_11,A,3,-0.002076929,-9.92666E-06,8.65953E-07,1.242583953,3.079608489,1.87237E-05,-0.002917607,-0.525462975
name_11,A,4,-0.000295957,-3.77712E-06,2.14133E-07,0.472585089,2.087774341,0.000601121,-0.000923337,-0.074877121
name_11,A,5,-0.00087227,-6.0311E-06,2.8942E-07,0.865187252,2.273896563,0.000192479,-0.001493247,-0.220684201
name_11,A,6,-0.000956037,-5.21124E-06,2.15685E-07,1.083638544,2.94319586,7.25338E-05,-0.001495511,-0.241877346
name_11,A,7,-0.00015255,-3.69829E-06,1.5329E-07,0.418449485,1.970412259,0.000579867,-0.000681021,-0.038595253
name_11,A,8,-0.000351001,-2.79667E-06,9.41302E-08,0.664499256,2.359827241,0.000289434,-0.000757381,-0.088803201
name_11,A,9,-0.000957994,-4.9983E-06,2.07768E-07,0.906707953,2.862866893,5.2727E-05,-0.001514239,-0.242372473
name_11,A,10,-0.0001056,-2.52398E-06,9.69753E-08,0.340136879,2.018456501,0.0004833,-0.000554754,-0.026716813
name_11,A,11,-0.000638582,-3.66042E-06,1.04268E-07,0.961564761,2.671363315,4.15814E-05,-0.001052546,-0.161561196
name_11,A,12,-0.00077347,-4.24253E-06,1.47719E-07,0.657545653,2.402747409,2.56516E-05,-0.001295984,-0.195687954
name_11,A,13,-0.000404037,-2.12931E-06,5.58298E-08,0.448921536,2.154999055,6.15069E-05,-0.00073566,-0.102221445
name_11,A,14,-0.000325805,-2.63739E-06,7.71198E-08,0.531048392,2.080421114,0.000204928,-0.000710588,-0.08242866
name_11,A,15,0.000455679,-9.96214E-07,5.13739E-08,-0.461489359,3.222736619,0.000858276,-0.000198127,0.115286674
name_11,B,1,-0.001185436,-7.73004E-06,5.89585E-07,1.070945824,2.500061074,0.000401816,-0.00185823,-0.299915353
name_11,B,2,-0.003997443,-8.20213E-06,6.59485E-06,0.426531996,2.307751975,0.001128377,-0.008029573,-1.011353043
name_11,B,3,-0.002217557,-1.43139E-05,1.37514E-06,1.001648202,2.496147044,0.000139684,-0.003665214,-0.56104202
name_11,B,4,0.000114175,3.14648E-06,1.50618E-07,0.13238145,2.566705164,0.000903648,-0.000569007,0.028886284
name_11,B,5,-0.000219556,-7.78786E-07,8.42652E-08,-0.107287962,1.681247593,0.000255838,-0.000702264,-0.055547616
name_11,B,6,-0.000787316,-8.26313E-06,4.19871E-07,0.539084428,2.136271265,0.0004253,-0.001966225,-0.199190939
name_11,B,7,9.60497E-05,2.09793E-06,1.17798E-07,0.143410727,2.535074901,0.000832863,-0.000499854,0.024300573
name_11,B,8,-0.00050681,-5.06967E-06,1.88784E-07,0.931612481,2.594857964,0.000418074,-0.001202098,-0.128223054
name_11,B,9,-0.000698715,-6.86517E-06,2.92465E-07,0.559544367,2.113060977,0.000322607,-0.001556006,-0.176774894
name_11,B,10,0.000601565,5.8513E-06,3.01155E-07,0.158848997,2.192162726,0.001673193,-0.000361107,0.152195984
name_11,B,11,0.000556745,6.18173E-06,3.04541E-07,0.227697028,2.035321375,0.001605537,-0.000287415,0.140856524
name_11,B,12,-0.000395423,-4.49458E-06,1.41053E-07,0.681605833,2.310567235,0.000363098,-0.000997745,-0.100042036
name_11,B,13,0.000435462,4.29006E-06,1.60927E-07,0.509841752,2.413976018,0.001247206,-0.000222437,0.11017192
name_11,B,14,-0.000327595,-2.86207E-06,7.92645E-08,1.112667156,2.893412219,0.000306954,-0.000701659,-0.082881496
name_11,B,15,0.000486617,2.22553E-06,9.98639E-08,-0.827589298,2.23932621,0.000818718,-0.000257721,0.123114087
name_12,C,1,0.001809659,1.48285E-05,1.38768E-06,-0.630025909,1.67488281,0.002909687,-0.000110722,0.457843787
name_12,C,2,0.003799038,3.24523E-05,8.65358E-06,-0.641558721,1.742166426,0.006819112,-0.001249269,0.961156589
name_12,C,3,-0.001245927,-3.57535E-06,1.67177E-07,2.229252367,7.266768678,0.000315486,-0.001580549,-0.315219496
name_12,C,4,0.000472274,4.50118E-06,1.16012E-07,0.222828134,1.756660189,0.001071761,-5.9813E-06,0.119485376
name_12,C,5,-0.001234762,3.96936E-07,3.65201E-07,0.384943492,2.217838792,0.000103431,-0.002081329,-0.312394672
name_12,C,6,-0.000525998,-2.41393E-06,4.48483E-08,1.062658162,3.422217539,8.4922E-05,-0.000751552,-0.133077583
name_12,C,7,-0.000341611,1.48373E-07,1.21541E-07,0.275320672,1.673034371,0.00028864,-0.000782621,-0.086427522
name_12,C,8,-0.001602178,-3.76728E-06,4.31064E-07,1.222164833,3.539068589,9.60121E-05,-0.002330271,-0.40535109
name_12,C,9,-0.000975248,-4.50089E-06,1.82555E-07,1.308832193,3.16872025,4.10006E-05,-0.001341859,-0.246737737
name_12,C,10,-0.001356339,-8.88641E-06,5.72043E-07,0.631558601,1.8683733,7.09761E-05,-0.002271158,-0.343153841
name_12,C,11,-6.19519E-05,3.08544E-06,1.10661E-07,1.062168331,3.867573917,0.000996971,-0.000445979,-0.015673843
name_12,C,12,-0.000429531,-8.76039E-07,3.36566E-08,0.784115168,3.283091567,1.35737E-05,-0.000692284,-0.108671466
name_12,C,13,-0.001222205,1.19255E-06,6.48351E-07,0.461829891,1.613679242,7.16002E-05,-0.002192993,-0.30921787
name_12,C,14,-0.000532656,3.91344E-06,4.27924E-07,0.922784135,2.659615859,0.000898095,-0.001246455,-0.134761987
name_12,C,15,0.002357677,2.51083E-05,3.51906E-06,-0.071594897,1.385704794,0.004813602,-0.000136037,0.596492298
name_12,B,1,-0.001142447,-8.57456E-06,4.41398E-07,0.492369646,1.563782485,0.000149311,-0.001850306,-0.289038998
name_12,B,2,-0.004963258,-4.16132E-05,9.74927E-06,0.33488907,1.512538725,0.000364745,-0.008625073,-1.255704354
name_12,B,3,-0.002816773,-2.8423E-05,4.44175E-06,0.016546209,1.422500946,7.82916E-05,-0.005650321,-0.712643567
name_12,B,4,-0.000575443,-1.11578E-05,7.71479E-07,0.012619101,1.653457914,0.000719064,-0.002167722,-0.145587187
name_12,B,5,-0.000658024,-1.19695E-05,1.01929E-06,0.115070295,1.422791505,0.000837996,-0.002042814,-0.16648018
name_12,B,6,-0.002306523,-2.09194E-05,2.71268E-06,0.391951343,1.384115563,4.14122E-05,-0.004146909,-0.583550255
name_12,B,7,-0.00175092,-1.96533E-05,2.27578E-06,0.090799323,1.706391229,0.000380121,-0.004515446,-0.442982649
name_12,B,8,-0.002656943,-2.43388E-05,3.6045E-06,0.328627022,1.473926889,0.000117145,-0.005473934,-0.672206508
name_12,B,9,-0.001677019,-1.70834E-05,1.62051E-06,0.097254669,1.713038797,0.000122205,-0.003837157,-0.424285809
name_12,B,10,0.001404672,-2.61261E-07,2.60704E-06,1.021730985,2.737470977,0.004980632,-0.000564083,0.355382113
name_12,B,11,-0.003491999,-2.14287E-05,3.57261E-06,0.491156341,1.770009317,0.000374407,-0.005899917,-0.883475854
name_12,B,12,-0.000652507,-1.01989E-05,7.01535E-07,0.266507674,1.33640367,0.000608622,-0.001549469,-0.16508436
name_12,B,13,0.000836414,8.38682E-07,8.99813E-07,0.972925405,2.885841516,0.002991999,-0.000351341,0.211612817
name_12,B,14,-0.002202536,-2.03959E-05,2.30005E-06,0.236644953,1.552859342,2.23151E-05,-0.004520055,-0.557241686
name_12,B,15,-0.002313923,-1.73417E-05,1.66025E-06,0.385579975,1.811801273,0.000270456,-0.004130172,-0.585422497
name_12,A,1,-0.002590259,-3.01407E-05,5.44484E-06,0.30473781,1.511087328,0.001426868,-0.005418422,-0.655335507
name_12,A,2,-0.008489185,-0.000122335,9.22638E-05,0.326891721,1.44882841,0.006915902,-0.018822957,-2.147763856
name_12,A,3,-0.00286733,-3.04796E-05,6.30345E-06,0.268982551,1.48263493,0.001232471,-0.006256398,-0.725434506
name_12,A,4,-0.00266685,-2.83919E-05,4.72245E-06,0.130752914,1.237912213,0.000183494,-0.005340753,-0.67471302
name_12,A,5,-0.001282446,-1.08012E-05,7.75074E-07,0.069758255,1.562473636,0.000331549,-0.002947975,-0.324458843
name_12,A,6,0.000770317,3.15021E-06,4.93109E-07,-0.201605266,1.934248558,0.00194686,-0.000544536,0.194890298
name_12,A,7,-0.000360205,-1.16252E-05,1.41529E-06,0.461913346,2.215714508,0.001955941,-0.002657943,-0.091131861
name_12,A,8,0.001382537,4.66964E-06,1.63639E-06,-0.090699969,1.83592297,0.00359104,-0.000821601,0.349781774
name_12,A,9,0.000110653,-3.13684E-07,3.30644E-08,-0.896931326,2.726463279,0.000338783,-0.000298076,0.027995176
name_12,A,10,,,,,,,,
name_12,A,11,-0.001335662,-7.14177E-06,6.16859E-07,-0.038871019,1.826718457,0.000322132,-0.00260728,-0.337922478
name_12,A,12,0.000978843,4.99178E-06,2.23908E-07,-1.019705437,2.889005458,0.00158873,-1.75113E-05,0.247647366
name_12,A,13,,,,,,,,
name_12,A,14,-0.000426164,-5.38368E-06,2.74612E-07,0.077214191,2.164911729,0.000507743,-0.001437408,-0.107819577
name_12,A,15,-0.003644183,-3.36795E-05,6.40968E-06,0.209147708,1.374446915,0.000145045,-0.006754015,-0.921978367
name_13,A,1,0.00206765,2.56519E-05,3.85216E-06,0.65211923,1.958964616,0.00589327,-0.000138887,0.523115347
name_13,A,2,0.000240561,3.05246E-06,7.06589E-08,1.658038173,4.868599349,0.001049981,-8.57901E-05,0.060861846
name_13,A,3,-0.000382709,-2.53062E-06,1.34965E-07,-0.613504127,1.959273979,0.000157313,-0.001065449,-0.096825443
name_13,A,4,-2.72269E-05,1.43324E-06,8.77912E-08,1.124185039,3.889424461,0.000854501,-0.000394321,-0.006888394
name_13,A,5,-0.000250211,-1.89087E-07,7.11197E-08,0.794320316,2.471633883,0.000461327,-0.000553142,-0.063303376
name_13,A,6,-0.000136433,-1.48059E-07,4.66008E-08,0.409216126,2.241112695,0.000382378,-0.00046268,-0.03451765
name_13,A,7,-0.000100132,1.18666E-06,1.06295E-07,0.621576828,3.629149941,0.000850827,-0.00061993,-0.025333426
name_13,A,8,0.000110503,2.73788E-06,1.05265E-07,0.291019248,2.206710246,0.000819544,-0.000364999,0.027957194
name_13,A,9,-0.000531178,-2.24246E-06,1.03306E-07,1.012933641,2.600283066,0.000171354,-0.00086073,-0.134387909
name_13,A,10,-0.000294204,-4.82654E-07,8.3981E-08,0.351334106,1.96116284,0.000314789,-0.000713114,-0.074433545
name_13,A,11,-0.000298553,-6.78324E-07,4.83519E-08,0.468353808,2.021630074,0.000108753,-0.000602259,-0.075534013
name_13,A,12,-0.000288977,-1.31489E-06,5.10242E-08,0.619348552,2.084119707,0.000153074,-0.000569047,-0.073111111
name_13,A,13,-0.000254691,-5.90626E-07,5.94712E-08,0.201212026,1.835231891,0.000237603,-0.000633146,-0.064436889
name_13,A,14,-0.000282817,-5.30393E-07,4.84322E-08,-0.052808837,2.011127878,8.34824E-05,-0.00065276,-0.071552737
name_13,A,15,0.000791077,8.4221E-06,4.28565E-07,0.601624497,1.96289721,0.002153512,-0.000136214,0.200142399
name_13,B,1,0.002459856,1.38965E-05,1.23119E-06,-0.91055831,2.841027123,0.003633364,-8.28859E-05,0.622343478
name_13,B,2,0.001860637,1.00774E-05,6.95105E-07,-0.460687257,2.832942155,0.003073745,-0.00023151,0.470741132
name_13,B,3,0.001610358,4.20245E-06,5.55147E-07,-0.60298735,2.421988969,0.002512328,-0.000355826,0.407420502
name_13,B,4,0.00251783,1.00445E-05,8.90502E-07,-1.336876843,4.429282509,0.003590376,-0.000364153,0.637011101
name_13,B,5,0.002420141,8.2334E-06,7.97547E-07,-1.436074038,4.630631785,0.003407832,-0.000339644,0.612295734
name_13,B,6,0.002230558,6.09976E-06,7.72474E-07,-1.078869331,3.675225321,0.003288672,-0.000283706,0.564331109
name_13,B,7,0.002554702,1.00505E-05,9.23849E-07,-1.2556987,4.440145166,0.003790424,-0.000377206,0.64633968
name_13,B,8,0.00223982,8.05255E-06,7.28545E-07,-1.328390546,4.208819159,0.003196755,-0.000191046,0.5666744
name_13,B,9,0.002175886,5.37356E-06,7.14167E-07,-1.14118476,3.94656797,0.003305162,-0.000187023,0.550499118
name_13,B,10,0.002287598,5.19238E-06,7.26945E-07,-1.233472265,4.479450541,0.003428117,-0.000401678,0.578762405
name_13,B,11,0.002279757,6.01564E-06,6.80073E-07,-1.549382397,4.953443033,0.003219677,-0.000261958,0.576778491
name_13,B,12,0.001817333,6.4858E-06,5.61586E-07,-1.070508251,3.359028421,0.002623984,-7.02355E-05,0.459785134
name_13,B,13,0.002301535,7.5301E-06,6.28123E-07,-1.857874016,5.897353743,0.003056629,-0.000380614,0.582288239
name_13,B,14,0.001804542,6.66346E-06,4.47894E-07,-1.552406869,4.619082414,0.002429008,-0.00020325,0.456549019
name_13,B,15,0.001797792,8.19698E-06,5.10501E-07,-1.405068414,3.909720461,0.002483013,-0.000134825,0.4548414
name_13,C,1,0.004259787,4.63823E-05,1.20501E-05,0.433018207,1.753928844,0.009962559,-0.000118398,1.07772601
name_13,C,2,0.002208893,1.78708E-05,2.29812E-06,0.716389777,2.453700065,0.005157256,-0.000174087,0.558849941
name_13,C,3,0.001320158,5.18764E-06,1.43045E-06,0.05969871,1.717675241,0.003324354,-0.000466878,0.333999905
name_13,C,4,0.002828372,2.17021E-05,3.13486E-06,0.542889421,2.386388386,0.006093482,-0.000224745,0.715578033
name_13,C,5,0.003003374,1.91584E-05,3.20974E-06,0.479730304,2.5630144,0.006488144,-0.000284392,0.759853516
name_13,C,6,0.001735188,8.06253E-06,1.17789E-06,0.253562235,2.07607812,0.003744407,-0.000249602,0.439002501
name_13,C,7,0.003669335,2.78543E-05,5.32402E-06,0.602937001,2.495241663,0.00806079,-0.000289132,0.928341763
name_13,C,8,0.001925519,1.1875E-05,1.3531E-06,0.514238771,2.636335676,0.004260166,-0.000170602,0.48715622
name_13,C,9,0.001062067,3.52393E-06,5.69615E-07,-0.008822901,1.590514886,0.002245361,-0.000161568,0.268702934
name_13,C,10,0.002137556,1.34819E-05,1.78457E-06,0.539436889,2.425343941,0.004734601,-0.000231554,0.540801614
name_13,C,11,0.001608865,9.16382E-06,7.72308E-07,0.134232078,2.372878815,0.003169617,-0.00016736,0.407042893
name_13,C,12,0.000710012,8.57275E-08,2.98402E-07,-0.018004172,1.5972101,0.001560583,-0.000136753,0.179633138
name_13,C,13,0.002039528,1.4135E-05,1.34917E-06,0.347667634,2.397329688,0.004100814,-0.000221011,0.516000644
name_13,C,14,0.001537442,1.17019E-05,9.47575E-07,0.388577507,2.295639572,0.003303088,-6.88883E-05,0.388972813
name_13,C,15,0.003226415,2.98869E-05,4.93899E-06,0.299473719,1.824552415,0.006783178,-0.000112453,0.816282976
name_14,A,1,0.000349123,8.7465E-07,2.28213E-08,-0.672878269,3.978718683,0.000657029,-0.000170013,0.088328192
name_14,A,2,0.000753857,4.49745E-08,1.56106E-07,-0.78186342,3.48599476,0.00125665,-0.000680805,0.190725741
name_14,A,3,0.000600209,-2.65897E-06,1.82192E-07,-0.466057896,2.076591568,0.001188515,-0.000486849,0.151852941
name_14,A,4,2.43348E-05,-2.86154E-06,1.00168E-07,0.430259617,2.465409332,0.000703629,-0.000450626,0.006156702
name_14,A,5,0.000427173,-4.25048E-06,2.64225E-07,0.915268968,2.798978484,0.001567552,-0.00038959,0.108074782
name_14,A,6,5.6315E-05,-6.08058E-06,2.91112E-07,-0.32916028,1.65879582,0.000835692,-0.000814172,0.014247706
name_14,A,7,-0.000285191,-4.62383E-06,1.82789E-07,0.60415175,2.353924954,0.000612658,-0.000804416,-0.072153213
name_14,A,8,0.00055656,-6.14427E-06,4.64418E-07,-0.263042954,1.552892145,0.001544353,-0.000489145,0.140809731
name_14,A,9,0.000475128,-3.81623E-06,2.552E-07,-0.523408778,1.712631238,0.00109363,-0.000361198,0.120207496
name_14,A,10,-0.000179493,-5.11374E-06,2.52809E-07,0.597895316,2.364208656,0.000902896,-0.000772885,-0.045411704
name_14,A,11,0.000752389,8.43204E-07,6.12499E-08,-2.203337557,8.717404122,0.00107598,-0.000334823,0.19035444
name_14,A,12,0.001284231,2.26786E-06,1.73733E-07,-2.120705354,8.218227981,0.00178001,-0.000438729,0.324910472
name_14,A,13,0.000275837,-2.26803E-06,1.37571E-07,0.581356515,2.578944732,0.001104119,-0.0004734,0.069786722
name_14,A,14,0.000959861,1.33419E-06,9.55961E-08,-2.350252881,9.439335867,0.001294377,-0.000427243,0.242844941
name_14,A,15,-3.49914E-05,-1.1355E-06,4.84064E-08,0.796150124,2.723174015,0.000466119,-0.000329528,-0.008852827
name_14,C,1,0.000599335,4.03568E-06,1.14442E-07,0.548918426,3.474477914,0.001461818,-2.16216E-05,0.151631659
name_14,C,2,0.002312679,6.74781E-06,8.25425E-07,-1.146009162,4.065183267,0.003490517,-0.000603697,0.585107682
name_14,C,3,0.001668608,1.63517E-06,4.07438E-07,-1.062937409,4.439815016,0.002617981,-0.000403474,0.422157877
name_14,C,4,0.000133559,-3.04877E-06,1.27715E-07,0.528336381,2.607830727,0.000898026,-0.000438383,0.033790482
name_14,C,5,0.001060663,-1.75702E-06,4.08383E-07,-0.013497057,1.656535616,0.002002177,-4.14084E-05,0.268347826
name_14,C,6,0.001186149,1.81109E-06,2.35309E-07,-0.97388233,3.420343957,0.001845378,-9.42155E-05,0.300095782
name_14,C,7,-0.000345175,-7.09933E-06,3.27968E-07,0.271378976,1.94412558,0.000703904,-0.001152326,-0.087329392
name_14,C,8,0.001558287,1.10962E-06,4.78111E-07,-0.799339993,2.824957113,0.002513068,-0.000117243,0.394246587
name_14,C,9,0.001223774,2.12083E-06,3.34593E-07,-0.514397426,2.536103032,0.002074819,-0.000119665,0.30961481
name_14,C,10,0.000723339,-2.60209E-06,2.11218E-07,0.411230837,2.65912378,0.001706286,-0.000417166,0.183004843
name_14,C,11,0.00084578,3.64977E-07,1.28776E-07,-0.403133549,3.823421512,0.001522891,-0.00023804,0.213982282
name_14,C,12,0.001339078,-8.26509E-07,4.05067E-07,-0.404779447,2.428905674,0.002332764,-0.000183733,0.338786839
name_14,C,13,0.00115649,8.88732E-07,1.92904E-07,-1.057738189,5.115904736,0.001798717,-0.00042267,0.292591932
name_14,C,14,0.000813521,-1.662E-06,1.84391E-07,-0.141590286,2.230066327,0.001482878,-0.000232171,0.205820829
name_14,C,15,0.000570703,3.49515E-06,1.38144E-07,0.452932868,2.363528691,0.00136866,-5.31577E-05,0.144387964
name_14,B,1,0.002256145,1.0217E-05,9.50376E-07,-1.233283277,3.238284762,0.003248272,-8.02089E-05,0.570804636
name_14,B,2,0.001114178,-2.62028E-06,1.31669E-06,0.425300236,2.861354223,0.003687696,-0.001029172,0.281886926
name_14,B,3,-0.000166676,-8.31248E-06,7.67401E-07,1.020774501,2.937143214,0.001852113,-0.001364545,-0.042168999
name_14,B,4,0.000101948,-3.71108E-06,2.6527E-07,0.898026292,2.891831257,0.001277703,-0.000620274,0.025792857
name_14,B,5,0.000693471,-4.04943E-06,4.82199E-07,1.031890125,3.034456827,0.002319584,-0.000178523,0.175448164
name_14,B,6,-0.000467235,-3.84722E-06,2.23528E-07,0.73171859,2.383353232,0.00049318,-0.001147727,-0.11821045
name_14,B,7,-0.000258927,-3.10384E-06,1.81731E-07,0.563288063,2.585226827,0.000630752,-0.000957096,-0.065508454
name_14,B,8,-0.000208043,-2.88745E-06,3.62599E-07,0.268156538,2.576019933,0.001001828,-0.001287657,-0.052634867
name_14,B,9,-0.000246947,-3.45098E-06,1.73719E-07,0.946584303,2.606666081,0.000653897,-0.000758664,-0.062477551
name_14,B,10,8.38456E-05,-5.55984E-06,4.43587E-07,1.259719269,3.261406052,0.001673009,-0.000603276,0.021212945
name_14,B,11,0.000111144,-5.09387E-06,2.94641E-07,1.202888109,3.111810948,0.001385131,-0.000481157,0.028119504
name_14,B,12,-0.000699472,-9.78447E-06,7.76665E-07,0.932533846,2.284969316,0.001107338,-0.001550082,-0.176966304
name_14,B,13,0.000435844,-2.78436E-06,3.24968E-07,0.985088521,3.296785089,0.001810514,-0.000516117,0.110268485
name_14,B,14,-0.000504068,-5.54587E-06,3.70028E-07,1.040173584,2.625243534,0.00081824,-0.001134053,-0.127529169
name_14,B,15,0.001304051,7.11097E-06,3.15665E-07,-0.817723096,2.780536633,0.00192267,-0.000124206,0.329924957
name_15,B,1,-0.000283719,-3.35347E-06,9.13998E-08,0.448832432,1.90211407,0.000261274,-0.000705963,-0.071780963
name_15,B,2,-0.000397512,-5.35108E-06,4.10573E-07,0.974839854,2.67047934,0.001022394,-0.001056223,-0.100570559
name_15,B,3,-0.000882067,-1.45704E-05,1.40259E-06,0.549271807,2.165642359,0.001408855,-0.002418947,-0.223162945
name_15,B,4,-0.000302602,-6.53093E-06,3.59199E-07,0.707901582,2.461670602,0.000953707,-0.00108385,-0.076558186
name_15,B,5,-0.000870092,-1.22352E-05,1.00662E-06,0.480374737,2.121672384,0.001031274,-0.002256915,-0.220133243
name_15,B,6,-0.000158091,-1.11876E-05,1.12731E-06,0.678184957,2.463380038,0.002033998,-0.001638179,-0.039997072
name_15,B,7,-0.001393597,-1.60879E-05,1.77481E-06,0.711384921,2.159344565,0.001202906,-0.002987042,-0.352580008
name_15,B,8,-0.0005146,-9.65609E-06,8.02992E-07,0.886304083,2.471718202,0.001364484,-0.001577867,-0.130193806
name_15,B,9,-0.000242866,-8.91539E-06,6.62277E-07,0.805411389,2.46499725,0.001461529,-0.001227343,-0.061445217
name_15,B,10,-0.000718109,-1.30989E-05,1.26582E-06,0.797869878,2.374757742,0.001604989,-0.001995999,-0.181681555
name_15,B,11,-0.001366072,-1.87946E-05,2.19832E-06,0.544600963,1.962874066,0.00139111,-0.003063097,-0.345616315
name_15,B,12,-0.00160825,-1.72249E-05,1.7951E-06,0.507070247,1.760691939,0.000704515,-0.003093343,-0.406887198
name_15,B,13,-0.000576987,-8.68494E-06,6.28317E-07,0.997187709,2.58749935,0.00113075,-0.001385932,-0.145977691
name_15,B,14,-0.000942322,-8.87755E-06,6.14899E-07,0.957772293,2.21726073,0.000619343,-0.001620879,-0.238407396
name_15,B,15,-0.000371692,-5.7714E-06,2.29043E-07,0.706551085,2.106399428,0.000567497,-0.000891632,-0.094037976
name_15,A,1,-0.001438817,-7.10723E-06,4.54919E-07,1.076834133,2.591417337,9.95634E-05,-0.002082247,-0.364020592
name_15,A,2,-0.00054883,-1.92663E-06,5.35891E-08,0.900314089,3.696367494,0.000230093,-0.000877307,-0.138854043
name_15,A,3,-0.000841001,-7.95587E-07,9.73576E-08,1.545259963,5.671016118,0.000369182,-0.001235902,-0.212773345
name_15,A,4,-0.00064117,-3.92004E-08,5.31401E-08,1.536906581,6.194025908,0.000267546,-0.0009411,-0.162216053
name_15,A,5,-0.000710826,2.79393E-06,1.98564E-07,0.527246176,2.022555004,0.000317027,-0.00123186,-0.179838986
name_15,A,6,-0.001020061,-6.53165E-08,1.43223E-07,1.372399685,4.819046364,0.000287673,-0.00142868,-0.258075498
name_15,A,7,-0.000931148,1.02564E-07,1.33467E-07,1.34484321,4.418886409,0.000367128,-0.00132272,-0.23558036
name_15,A,8,-0.000609686,4.72968E-07,7.95029E-08,0.65233763,3.123852202,0.000249357,-0.001049849,-0.154250447
name_15,A,9,-0.000708231,-1.62698E-06,8.79063E-08,0.761234125,3.386133732,0.000218554,-0.001135247,-0.179182451
name_15,A,10,-0.001067467,-2.56313E-06,1.66213E-07,1.244259672,4.288316896,0.000283054,-0.001547212,-0.270069159
name_15,A,11,-0.000777794,8.75118E-07,2.17697E-07,0.201679181,2.286738436,0.000290353,-0.001567542,-0.196781773
name_15,A,12,-0.000984753,-2.59523E-06,1.59333E-07,0.831330842,4.041795892,0.000357471,-0.00161801,-0.249142478
name_15,A,13,-0.001187571,-2.74422E-06,1.91852E-07,1.461642369,4.677065487,0.000203799,-0.001649653,-0.300455487
name_15,A,14,-0.00080495,5.09203E-07,1.15126E-07,1.179863573,3.68721836,0.000325397,-0.0011824,-0.203652438
name_15,A,15,-0.000578834,-1.91862E-06,5.2672E-08,1.124323588,3.948133985,0.000151268,-0.000896995,-0.146445036
name_15,C,1,0.000404392,2.82569E-06,9.21928E-08,-0.814674755,2.218499751,0.000743954,-0.000188086,0.102311251
name_15,C,2,0.001126152,9.20168E-06,9.72211E-07,-0.293383902,1.675143048,0.002577832,-0.000487974,0.284916415
name_15,C,3,-0.000953633,-7.26101E-06,5.68686E-07,0.075784189,1.718082242,0.000213432,-0.002191091,-0.241269179
name_15,C,4,-0.000408832,-1.78192E-06,7.86287E-08,0.234588748,1.701969041,4.91712E-05,-0.000820557,-0.103434514
name_15,C,5,-0.000705228,-4.3413E-06,2.74256E-07,0.040498164,1.842218004,0.000113759,-0.001618069,-0.17842264
name_15,C,6,-0.000838515,-4.63137E-06,5.06222E-07,0.128776584,1.804939234,0.000404016,-0.001945143,-0.212144332
name_15,C,7,-0.001123197,-6.30269E-06,3.27667E-07,0.485022506,2.425918301,5.9312E-05,-0.002011271,-0.284168967
name_15,C,8,-0.000855071,-4.14787E-06,2.57068E-07,0.215746463,2.116752829,4.45456E-05,-0.001718375,-0.216332974
name_15,C,9,-0.001032906,-6.33937E-06,3.49476E-07,0.711800026,2.308798193,0.000121967,-0.001837365,-0.261325324
name_15,C,10,-0.0015533,-1.11698E-05,7.46448E-07,0.362497433,1.990986753,5.20643E-05,-0.00291057,-0.392984908
name_15,C,11,-0.002134863,-1.5369E-05,1.36275E-06,0.324890592,1.940528226,5.62642E-05,-0.003895967,-0.540120221
name_15,C,12,-0.001475651,-1.29484E-05,9.46828E-07,-0.027061262,1.746611898,1.12379E-05,-0.003274735,-0.3733396
name_15,C,13,-0.000820077,-3.80621E-06,1.54899E-07,0.780390637,2.516302642,5.12557E-06,-0.001327179,-0.207479581
name_15,C,14,-0.000950068,-3.93102E-06,1.77496E-07,0.878086255,3.047943075,6.66463E-05,-0.001548611,-0.240367107
name_15,C,15,-0.000492335,-1.29686E-06,5.6115E-08,0.455178616,2.407805693,5.40439E-05,-0.00082902,-0.124560741
name_16,B,1,0.002907613,8.68628E-06,1.01747E-06,-1.946066655,5.783003337,0.00373914,-0.000327079,0.735626164
name_16,B,2,0.00200123,-3.94852E-07,6.89557E-07,-0.736455725,3.425552911,0.0032621,-0.000501769,0.506311265
name_16,B,3,0.002922645,-2.379E-06,1.9188E-06,-0.451497078,2.432567066,0.005028116,-0.000607473,0.739429089
name_16,B,4,0.001170176,-1.64941E-06,4.02808E-07,-0.427164329,1.769501664,0.001974405,-0.000207063,0.296054527
name_16,B,5,0.000954336,-2.70899E-06,3.33283E-07,-0.364370319,1.879266388,0.001812324,-0.000269639,0.241446935
name_16,B,6,0.001135751,-9.27841E-06,1.24507E-06,-0.04152512,1.969059204,0.003059096,-0.000581416,0.287344944
name_16,B,7,0.000958099,-3.52942E-06,3.93194E-07,-0.255226567,1.693100569,0.001913197,-0.00025646,0.24239901
name_16,B,8,0.000901835,-1.02635E-05,1.24339E-06,-0.005763873,1.848528321,0.002810111,-0.00072984,0.22816418
name_16,B,9,0.001212132,-9.70184E-06,1.33122E-06,0.321467973,2.129414721,0.003433087,-0.000488052,0.306669317
name_16,B,10,0.001615506,-1.25793E-06,7.23233E-07,-0.433029544,2.043672946,0.002856396,-0.000384414,0.408723123
name_16,B,11,0.001724409,6.31998E-07,5.41555E-07,-0.845749375,2.884694664,0.002612015,-0.000282906,0.436275358
name_16,B,12,0.001619982,1.10759E-06,3.81817E-07,-1.064218401,4.231246688,0.002508455,-0.000301595,0.409855444
name_16,B,13,0.002015907,1.7805E-06,7.16489E-07,-0.803941367,3.144818816,0.003195215,-0.000364256,0.510024574
name_16,B,14,0.002172684,5.44202E-06,5.92848E-07,-1.57418862,5.424024657,0.003157781,-0.000363339,0.54968895
name_16,B,15,0.0022207,-2.93368E-06,1.34091E-06,-0.543603615,1.930058593,0.00363861,-0.000444615,0.561837068
name_16,C,1,0.00088451,9.27185E-06,5.49718E-07,0.207950712,1.394191526,0.002210603,-6.52645E-05,0.223781072
name_16,C,2,0.000282482,4.42807E-06,2.27539E-07,1.134422188,4.767401358,0.001793086,-0.000476245,0.071467841
name_16,C,3,0.000154171,3.21082E-06,4.01398E-07,1.040068487,4.421343,0.002152114,-0.000719893,0.039005166
name_16,C,4,0.000132613,3.77688E-06,1.09985E-07,1.059369461,3.534289962,0.000993353,-0.00029332,0.033551057
name_16,C,5,4.60951E-05,1.61544E-06,6.5413E-08,1.074944771,3.874200551,0.000836985,-0.000289257,0.011662065
name_16,C,6,-3.10627E-05,-6.66889E-08,1.43132E-07,-0.053373113,2.173151766,0.000743414,-0.000761911,-0.007858854
name_16,C,7,0.000123036,3.50145E-06,1.12839E-07,0.990118593,3.15095589,0.000964113,-0.00029931,0.031128146
name_16,C,8,5.30841E-06,5.55572E-07,1.00241E-07,0.23820934,2.237384561,0.000694945,-0.000545473,0.001343027
name_16,C,9,2.88662E-06,-1.21522E-06,1.61776E-07,0.176012755,2.280985954,0.000756812,-0.000730442,0.000730315
name_16,C,10,0.000583677,4.88372E-06,1.84427E-07,0.010063258,2.562599562,0.001449184,-0.000199973,0.147670289
name_16,C,11,0.000501286,3.20507E-06,9.70979E-08,-0.642295013,2.684914524,0.001016627,-0.000156906,0.126825379
name_16,C,12,-0.000211372,5.28715E-07,7.70109E-08,0.968932077,3.196385494,0.000570899,-0.00056273,-0.053477192
name_16,C,13,0.00091233,8.4519E-06,4.44928E-07,-0.151394573,2.257535772,0.002126923,-0.000284775,0.230819529
name_16,C,14,0.001285657,1.41536E-05,1.15573E-06,0.470517924,2.123790599,0.00340402,-0.000218534,0.325271337
name_16,C,15,0.001129905,8.50935E-06,7.24076E-07,0.239734835,1.675871206,0.002617232,-1.41308E-05,0.285865873
name_16,A,1,0.001363871,2.32601E-06,2.69545E-07,-1.207700467,4.273771899,0.002041311,-0.000190229,0.345059281
name_16,A,2,-0.00014156,-1.60298E-06,1.64749E-07,-0.369226848,3.098128889,0.000567971,-0.001150195,-0.035814776
name_16,A,3,0.000396375,1.10571E-06,5.27191E-07,0.489827852,2.461352846,0.001893429,-0.000904644,0.100282862
name_16,A,4,-0.000328207,-1.55781E-06,3.48881E-08,0.49661514,1.760768513,1.41001E-05,-0.000559286,-0.083036283
name_16,A,5,-0.000169148,-2.73547E-07,8.67288E-08,-0.25419504,2.019655232,0.000322591,-0.000682119,-0.042794496
name_16,A,6,8.70801E-05,4.95721E-07,1.41312E-07,0.148884953,2.332520104,0.000820653,-0.000638753,0.022031273
name_16,A,7,-0.000295915,-1.01611E-06,2.86004E-08,0.227425503,1.960773017,7.78625E-06,-0.000567355,-0.074866376
name_16,A,8,9.92393E-05,1.24506E-06,7.84586E-08,0.210798877,2.017177863,0.000625127,-0.000358691,0.025107544
name_16,A,9,0.000499602,2.38279E-06,2.09192E-07,0.367545246,1.935183889,0.001388309,-0.000216777,0.126399182
name_16,A,10,-0.000345386,-7.28638E-07,6.27456E-08,-0.208826814,1.879056895,2.80255E-05,-0.000799528,-0.087382602
name_16,A,11,9.23856E-05,1.2295E-06,2.45116E-08,-0.631570568,2.537519165,0.000336954,-0.000238469,0.02337356
name_16,A,12,0.000750093,4.07175E-06,1.49587E-07,-0.633870934,2.347857786,0.001293413,-3.44149E-05,0.189773639
name_16,A,13,0.000122929,2.01596E-06,5.33653E-08,-0.351725497,1.952456944,0.000439485,-0.000329981,0.031101071
name_16,A,14,0.001040812,2.3016E-06,2.24386E-07,-0.258995552,3.061766974,0.00186643,-0.00018604,0.263325351
name_16,A,15,-0.000183885,1.00956E-05,1.64519E-06,-0.8699811,2.448493062,0.001396405,-0.002855308,-0.04652292
name_17,C,1,0.000353117,-7.48107E-07,6.15493E-08,-0.250448614,1.818059077,0.000694743,-0.000120622,0.089338702
name_17,C,2,-0.000118412,-8.68029E-06,8.11264E-07,-0.044077256,1.843604103,0.001344204,-0.00166664,-0.029958202
name_17,C,3,0.000110383,-3.19362E-06,1.22142E-07,-0.011734139,1.478604423,0.000584529,-0.000423581,0.027926919
name_17,C,4,0.00021457,-1.63412E-06,9.00832E-08,0.69205746,2.287827008,0.00082636,-0.000201821,0.054286258
name_17,C,5,0.00016878,-8.64974E-07,3.6279E-08,0.436197128,1.886279799,0.000511163,-0.000114875,0.042701322
name_17,C,6,-7.92102E-06,-1.3256E-06,2.8143E-08,0.402414419,1.950726136,0.000303218,-0.000222288,-0.002004018
name_17,C,7,6.02299E-05,-8.97224E-07,3.85E-08,1.177947443,3.085001671,0.000517432,-0.000161393,0.015238166
name_17,C,8,-7.50034E-05,-1.64853E-06,7.3167E-08,0.931746305,2.59316511,0.000520812,-0.0003467,-0.01897585
name_17,C,9,-5.195E-05,-1.71645E-06,5.55109E-08,0.556870159,2.203593524,0.000417819,-0.000351292,-0.013143355
name_17,C,10,-7.85485E-06,-1.36737E-06,6.17701E-08,0.771892124,2.669956764,0.000532246,-0.000346164,-0.001987278
name_17,C,11,-0.000105798,-1.62964E-06,4.46029E-08,0.405365676,2.229249718,0.000303569,-0.000472328,-0.026766957
name_17,C,12,0.000306553,-1.07237E-06,8.5033E-08,0.184714384,1.505977899,0.000759664,-6.0949E-05,0.077557905
name_17,C,13,2.77208E-05,-2.42625E-06,1.25721E-07,0.588669155,2.161116691,0.00072196,-0.000389504,0.007013365
name_17,C,14,-0.000188422,-4.04787E-06,1.37039E-07,-0.290296045,1.593018984,0.000328986,-0.000820123,-0.047670827
name_17,C,15,7.72753E-05,-3.17452E-06,1.01865E-07,-0.577705942,1.949642446,0.000431166,-0.00066338,0.019550651
name_17,A,1,-0.000606153,-3.09866E-06,8.38102E-08,0.724676382,2.743582286,4.60347E-05,-0.00114493,-0.153356814
name_17,A,2,-1.57577E-05,-4.57758E-06,1.28081E-06,0.0135421,2.579543947,0.002006622,-0.002491893,-0.003986704
name_17,A,3,-0.000490464,-4.86315E-06,3.72937E-07,-0.021038163,1.787120133,0.00053888,-0.001383201,-0.124087513
name_17,A,4,-0.0004805,-4.70971E-06,3.25703E-07,-0.492619886,2.373680451,0.000361344,-0.001736593,-0.121566391
name_17,A,5,-0.000652433,-4.82344E-06,2.14673E-07,-0.265382669,1.834768652,2.82269E-05,-0.001506613,-0.165065435
name_17,A,6,-0.000682753,-3.998E-06,1.54458E-07,0.161938548,1.786092728,4.30856E-05,-0.001233128,-0.172736383
name_17,A,7,-0.000707221,-5.37011E-06,2.36643E-07,-0.643915208,2.736550922,9.10904E-06,-0.001834632,-0.178926798
name_17,A,8,-0.001361292,-6.64766E-06,3.46398E-07,0.523289753,3.767305438,9.36862E-05,-0.002577649,-0.344406797
name_17,A,9,-0.000379242,-2.90012E-06,2.31109E-07,-0.348275408,2.374589349,0.000371953,-0.001422936,-0.095948248
name_17,A,10,-0.000373132,-3.74588E-06,2.16919E-07,-1.196590843,3.850388494,0.000196449,-0.00166586,-0.09440237
name_17,A,11,-0.000681957,-4.97444E-06,2.28976E-07,-0.879668961,3.345668535,5.9203E-05,-0.001928408,-0.172535
name_17,A,12,-0.000591685,-5.76618E-06,4.13822E-07,-0.171354502,1.76931308,0.000417293,-0.001716814,-0.149696322
name_17,A,13,-0.000415262,-4.87316E-06,3.857E-07,-0.675379873,2.999806353,0.000519294,-0.001970662,-0.105061193
name_17,A,14,-0.000933895,-7.26636E-06,3.28421E-07,-0.437048979,2.42837741,0.00013137,-0.00215612,-0.236275313
name_17,A,15,-0.000222602,-2.58932E-06,1.6819E-07,-2.000207521,6.894450067,0.000247033,-0.001715832,-0.056318201
name_17,B,1,-0.000711926,-3.92548E-06,1.2574E-07,0.628195724,2.700944417,3.99924E-05,-0.001312916,-0.180117196
name_17,B,2,-0.001627948,-8.93694E-06,7.94207E-07,0.738463089,2.367871834,7.01629E-05,-0.002749396,-0.411870925
name_17,B,3,-0.000994746,-4.02695E-06,2.09756E-07,0.897586149,2.734515104,5.43983E-05,-0.001582003,-0.251670668
name_17,B,4,-0.000951833,-3.03522E-06,2.3777E-07,0.454165594,2.593944851,1.60806E-05,-0.001769325,-0.24081379
name_17,B,5,-0.000652685,-4.63769E-07,1.14667E-07,0.07235051,2.542264506,2.31478E-05,-0.00125359,-0.165129272
name_17,B,6,-0.001048895,-2.47228E-06,3.52403E-07,0.342226007,2.098453743,3.95251E-06,-0.001932732,-0.265370401
name_17,B,7,-0.000764768,-1.75202E-06,1.36056E-07,0.420038351,2.955835011,2.3966E-05,-0.00140969,-0.193486381
name_17,B,8,-0.001572323,-4.40136E-06,4.92973E-07,1.004202625,3.045008379,7.1662E-05,-0.002462711,-0.397797756
name_17,B,9,-0.001009166,-3.05909E-06,2.13978E-07,0.767616782,2.94542,4.4547E-05,-0.001721973,-0.255318994
name_17,B,10,-0.000784724,-2.29017E-06,1.61313E-07,0.419032109,2.745432225,6.55652E-06,-0.001483556,-0.198535122
name_17,B,11,-0.000808114,-2.22841E-06,1.42714E-07,0.554854149,2.853018616,4.56678E-05,-0.001424505,-0.204452954
name_17,B,12,-0.000708078,-2.50795E-06,1.60972E-07,0.192829756,1.954403826,3.98825E-05,-0.001373405,-0.179143656
name_17,B,13,-0.000977202,-2.13004E-06,2.69488E-07,0.048079954,2.604350544,3.55038E-05,-0.001952877,-0.247232063
name_17,B,14,-0.00132786,-5.97758E-06,2.99975E-07,1.078683075,3.665081666,0.000166674,-0.002158198,-0.335948461
name_17,B,15,-0.000940128,-4.39122E-06,1.91591E-07,1.024452579,3.100486926,2.11988E-05,-0.001574354,-0.237852491
name_19,A,1,0.000368148,-3.31532E-06,2.07787E-07,-0.187751066,2.384587554,0.001114627,-0.000518431,0.093141561
name_19,A,2,3.83749E-05,-4.16882E-06,1.67963E-07,-1.008290257,3.112349924,0.000503294,-0.000904843,0.009708846
name_19,A,3,-0.000895481,-6.08255E-06,2.28101E-07,0.128529522,2.326183299,1.03616E-05,-0.001731937,-0.226556705
name_19,A,4,-0.000772065,-5.87846E-06,1.972E-07,-0.126401609,2.1019343,3.11563E-05,-0.001539982,-0.195332463
name_19,A,5,-0.000692884,-5.58757E-06,1.88391E-07,-0.319594505,2.154204803,4.26293E-05,-0.001519319,-0.175299699
name_19,A,6,-0.000848596,-5.76064E-06,2.02868E-07,-0.10979342,2.559088469,7.92078E-05,-0.001695715,-0.214694689
name_19,A,7,-0.000394313,-2.98918E-06,5.94436E-08,-0.516011421,2.673971692,7.05164E-06,-0.000905953,-0.099761074
name_19,A,8,-0.00027064,-2.31288E-06,4.04541E-08,-0.901004732,3.231240504,1.3552E-05,-0.000740999,-0.068472045
name_19,A,9,-0.000669758,-4.98074E-06,1.47372E-07,-0.240110233,2.354002606,6.37563E-05,-0.001404376,-0.169448802
name_19,A,10,-0.000157944,-2.08992E-06,3.50913E-08,-1.34822107,4.342372108,8.34692E-05,-0.000665039,-0.039959941
name_19,A,11,-0.0003847,-3.31456E-06,6.62381E-08,-0.627861077,2.532584217,4.78963E-05,-0.000922827,-0.097329107
name_19,A,12,-0.000287013,-3.61655E-06,8.5867E-08,-0.651427837,2.405497875,6.35033E-05,-0.000948148,-0.072614268
name_19,A,13,-0.000212198,-3.1935E-06,7.39365E-08,-1.295017198,3.568938796,7.64537E-05,-0.000870397,-0.05368605
name_19,A,14,-0.000445507,-4.79312E-06,1.32692E-07,-0.512511188,2.091501022,5.18106E-06,-0.001184573,-0.112713337
name_19,A,15,-0.000665203,-7.33654E-06,3.18202E-07,-0.762689479,2.442503043,1.92155E-05,-0.001867323,-0.168296449
name_19,B,1,-0.000942899,-8.90389E-06,4.58528E-07,-0.410380566,2.496879863,0.000348846,-0.002529028,-0.238553379
name_19,B,2,-0.001826696,-1.45398E-05,1.28296E-06,0.293282833,1.944827866,0.000864449,-0.003861751,-0.462154125
name_19,B,3,-0.00367851,-2.16331E-05,2.80815E-06,0.645341236,2.915927919,0.001289388,-0.006808443,-0.930663095
name_19,B,4,-0.001362974,-8.73167E-06,4.63279E-07,0.480869654,2.597052917,0.000111993,-0.002610462,-0.344832432
name_19,B,5,-0.001482642,-9.87847E-06,5.80341E-07,0.527097371,2.43696964,0.000122283,-0.002864769,-0.375108454
name_19,B,6,-0.00179219,-1.1545E-05,8.51732E-07,0.585842021,2.493773808,0.000108725,-0.003498475,-0.453424152
name_19,B,7,-0.000857565,-4.51112E-06,1.71496E-07,0.140079835,3.169606306,0.000160941,-0.001791849,-0.216963898
name_19,B,8,-0.000793475,-4.11223E-06,1.58863E-07,0.211875124,2.763938689,0.000104436,-0.001614706,-0.200749281
name_19,B,9,-0.001729532,-1.02837E-05,6.89671E-07,0.671106989,2.676490047,0.000181214,-0.003184627,-0.437571662
name_19,B,10,-0.000732014,-4.18868E-06,1.17867E-07,0.418308762,3.047966076,0.000150336,-0.001443493,-0.185199642
name_19,B,11,-0.001457494,-8.5208E-06,4.58552E-07,0.800607375,2.736252947,0.000178546,-0.002581279,-0.368746096
name_19,B,12,-0.001170995,-7.29295E-06,3.29536E-07,0.444477184,2.741651746,0.000107292,-0.002336553,-0.296261702
name_19,B,13,-0.001212056,-7.20998E-06,3.41457E-07,0.493819508,2.782819989,0.000191379,-0.00230978,-0.306650234
name_19,B,14,-0.001860186,-1.03829E-05,7.22109E-07,0.835516278,2.898915118,0.000148389,-0.00331813,-0.470627121
name_19,B,15,-0.001392401,-1.05589E-05,6.43173E-07,0.251117096,2.286249382,2.90473E-05,-0.002990676,-0.352277418
name_19,C,1,0.000526474,1.82345E-06,1.09998E-07,-0.105582077,1.815568661,0.001070738,-5.30893E-05,0.133197844
name_19,C,2,-0.001021323,-8.07205E-06,4.05681E-07,0.5926967,1.730300306,2.84728E-05,-0.001921198,-0.258394636
name_19,C,3,-0.001501886,-1.07016E-05,7.82219E-07,0.918969577,2.241823409,0.000226418,-0.002508927,-0.379977066
name_19,C,4,-0.001109123,-6.9789E-06,2.95339E-07,0.805770687,2.541551597,1.06566E-05,-0.001983877,-0.28060812
name_19,C,5,-0.001431638,-9.13243E-06,4.96984E-07,0.718205233,2.315015758,6.60088E-05,-0.002293307,-0.362204446
name_19,C,6,-0.001520921,-9.00281E-06,5.3617E-07,1.043472724,2.685283506,1.59387E-05,-0.002510427,-0.38479292
name_19,C,7,-0.00075891,-4.49491E-06,1.47777E-07,0.951491786,2.519885712,1.25866E-05,-0.001321148,-0.192004141
name_19,C,8,-0.000854475,-3.97057E-06,1.61663E-07,1.288177122,3.19158587,5.43416E-05,-0.001382048,-0.216182123
name_19,C,9,-0.0015388,-8.67479E-06,5.23812E-07,1.119399147,2.778684729,1.28977E-05,-0.002491471,-0.389316493
name_19,C,10,-0.000433792,-2.48727E-06,6.38351E-08,0.837133651,2.508364639,7.74882E-05,-0.000768867,-0.109749378
name_19,C,11,-0.000931183,-6.0817E-06,2.27249E-07,0.762019572,2.277600501,6.23212E-06,-0.001610851,-0.235589305
name_19,C,12,-0.000966984,-7.46362E-06,3.242E-07,0.494339671,1.70577059,2.28645E-05,-0.001803378,-0.244647046
name_19,C,13,-0.000576254,-2.51976E-06,1.06324E-07,0.988548944,2.607531337,0.000121657,-0.000873058,-0.145792167
name_19,C,14,-0.001007123,-4.86652E-06,2.07674E-07,1.295827363,3.14197671,1.28894E-05,-0.001565462,-0.254802206
name_19,C,15,-0.000748103,-5.12694E-06,2.12492E-07,0.742999131,2.084439974,0.000104058,-0.00130041,-0.189270069
k1,A,1,0.000370445,1.7827E-06,2.96053E-08,-0.73913207,2.927919814,0.000700994,-2.9795E-05,0.093722506
k1,A,2,0.000179092,1.38077E-06,1.25136E-08,0.573203059,2.764549574,0.000465217,-6.26427E-06,0.045310346
k1,A,3,0.000582302,4.70071E-06,1.23133E-07,-0.297982792,1.840305891,0.001108951,-1.77801E-05,0.14732233
k1,A,4,-0.000176103,-1.06838E-06,8.62744E-09,0.06695389,3.12463312,6.27262E-05,-0.000424792,-0.044554015
k1,A,5,0.000142133,1.28067E-07,1.33806E-08,-0.183315893,1.73122907,0.000322758,-0.000101275,0.035959729
k1,A,6,0.000532224,3.26376E-06,7.71092E-08,-0.637416501,2.349072377,0.000890684,-3.73832E-05,0.134652768
k1,A,7,-0.000373268,-1.51774E-06,3.59052E-08,-0.991403642,5.859063881,7.77279E-05,-0.001007382,-0.094436848
k1,A,8,0.00096458,6.4197E-06,2.52654E-07,-0.651926996,2.211862839,0.001512252,-1.11168E-05,0.244038813
k1,A,9,0.001097819,6.27494E-06,2.58204E-07,-0.955836223,2.682704296,0.001606048,-2.41288E-05,0.277748103
k1,A,10,0.000100437,1.08387E-06,2.33478E-08,-0.201721936,1.864932966,0.000332471,-0.000178296,0.025410511
k1,A,11,0.000301298,1.88101E-06,5.45368E-08,-0.44809711,2.105753461,0.000634555,-0.000144524,0.076228456
k1,A,12,0.00085221,5.59421E-06,2.06722E-07,-0.830226768,2.184097326,0.001282681,-1.08022E-05,0.215609114
k1,A,13,-0.000136933,5.49489E-07,5.71334E-08,-0.667647612,2.109195084,0.000137701,-0.00071303,-0.03464395
k1,A,14,0.00073045,3.83159E-06,1.06486E-07,-1.265575416,3.172606483,0.001008903,-1.10204E-05,0.1848039
k1,A,15,0.000126501,-5.85389E-07,1.74546E-08,-0.00526073,1.61936251,0.000344677,-8.0522E-05,0.032004723
k1,B,1,0.001423533,1.20119E-05,7.81278E-07,0.159879012,1.972911874,0.002974078,-0.000185941,0.36015393
k1,B,2,0.000118404,6.80987E-07,6.82471E-09,-0.331633478,2.003097162,0.000239955,-4.01537E-05,0.02995625
k1,B,3,-0.000673843,-5.58353E-06,1.8429E-07,0.143878368,1.853054177,6.11364E-05,-0.001332068,-0.170482174
k1,B,4,0.000380715,1.00755E-06,5.24814E-08,0.310521463,2.133986072,0.000803328,-2.42422E-05,0.096320865
k1,B,5,-0.000103234,-3.92815E-06,1.68158E-07,-0.360193774,2.092666097,0.000540557,-0.000861251,-0.026118145
k1,B,6,-0.00047506,-5.14684E-06,1.63778E-07,-0.428578137,2.052561119,6.4213E-05,-0.001201979,-0.120190256
k1,B,7,-0.000374933,-4.54398E-06,2.00763E-07,-0.536830902,2.506925151,0.000294767,-0.00132286,-0.094858087
k1,B,8,-8.71431E-05,-4.1405E-06,1.50054E-07,-0.941813973,2.900958211,0.000435874,-0.000935107,-0.022047193
k1,B,9,-0.000950491,-7.7858E-06,3.26712E-07,0.064050207,1.786612497,8.88263E-05,-0.00182082,-0.240474177
k1,B,10,4.53251E-06,-2.4597E-06,1.1641E-07,-0.524051898,2.250549959,0.000462166,-0.000679657,0.001146725
k1,B,11,0.00046196,-3.4897E-08,9.20358E-08,-0.154183998,1.794694801,0.000930683,-3.09089E-05,0.116875971
k1,B,12,-0.000269606,-4.7423E-06,1.54693E-07,-0.228697478,2.050536645,0.000338021,-0.000962465,-0.068210314
k1,B,13,0.001143316,2.56118E-06,3.78127E-07,0.036397233,2.283994209,0.002226811,-5.09315E-05,0.289259016
k1,B,14,-0.000103541,-3.87462E-06,1.14682E-07,-0.0763596,2.22782606,0.000478196,-0.000699671,-0.026195787
k1,B,15,0.00106094,8.08752E-06,3.66176E-07,-0.126842244,1.78870236,0.002099404,-2.83163E-05,0.268417861
k1,C,1,0.000762631,5.70853E-06,3.90147E-07,-0.338329958,1.677470402,0.001671828,-0.000213683,0.192945603
k1,C,2,6.51067E-05,1.31176E-06,2.99087E-08,-0.507885188,2.080166233,0.000304831,-0.000271301,0.016472007
k1,C,3,4.15495E-05,1.13409E-06,2.5786E-08,-0.122225536,1.716784881,0.000302496,-0.000221711,0.010512012
k1,C,4,0.000277478,2.34144E-06,5.44531E-08,-0.2098965,1.745325252,0.000612187,-0.000126329,0.070202041
k1,C,5,0.000425952,2.08745E-06,5.28389E-08,-0.456537913,2.215988914,0.000767466,-0.000133427,0.107765903
k1,C,6,-0.000150776,-7.50677E-07,3.03339E-08,-0.768427887,2.210777508,4.23585E-05,-0.000528476,-0.038146415
k1,C,7,2.87386E-05,7.55367E-07,7.23197E-08,-0.911370449,2.627193642,0.000381329,-0.000555519,0.007270855
k1,C,8,0.000475928,3.62405E-06,8.66226E-08,0.104151494,1.684586765,0.000934614,-0.000105236,0.120409762
k1,C,9,0.000139007,2.27942E-06,5.34784E-08,0.062694882,1.888608334,0.00052183,-0.000234982,0.035168847
k1,C,10,0.000173185,2.38292E-06,1.45815E-07,-0.589095747,2.014271646,0.000704524,-0.000563071,0.043815763
k1,C,11,0.00043756,3.30673E-06,1.14477E-07,-0.105268065,1.663033746,0.000923096,-0.000121643,0.110702787
k1,C,12,0.000209835,1.80364E-06,2.54514E-08,0.004337791,1.460556358,0.00043428,-6.87104E-05,0.05308826
k1,C,13,0.000441265,3.67829E-06,2.95469E-07,-0.43215897,1.821230092,0.001118655,-0.000551571,0.111640063
k1,C,14,0.000587018,3.84297E-06,9.73519E-08,-0.2872518,1.706040573,0.000978907,-6.95671E-05,0.148515526
k1,C,15,0.000658155,6.30886E-06,2.28874E-07,-0.108343821,1.306735789,0.001260165,-5.04367E-05,0.166513265
name_20,A,1,-0.000151784,-9.6355E-06,6.27272E-07,0.05604152,1.787084374,0.001083524,-0.001394251,-0.038401326
name_20,A,2,-0.000314643,-4.3752E-06,2.19632E-07,-0.455730037,1.983129147,0.000368318,-0.001144395,-0.079604659
name_20,A,3,0.000453245,-1.1493E-06,7.12527E-08,-0.015511443,1.873325858,0.00087243,-0.000131482,0.114671
name_20,A,4,0.00081886,2.66509E-06,1.21637E-07,-0.756024749,3.55378056,0.001380293,-2.42657E-05,0.207171593
name_20,A,5,-3.0566E-05,-1.93833E-06,4.75904E-08,-0.513447728,1.994468031,0.000281394,-0.000414777,-0.007733194
name_20,A,6,0.000108,-3.28229E-06,1.20254E-07,-0.374970488,1.717297201,0.00056307,-0.000513382,0.02732402
name_20,A,7,0.000706758,-2.40515E-07,9.90261E-08,-0.48319033,2.740818295,0.001169289,-0.000104658,0.178809687
name_20,A,8,-0.000935055,-1.09512E-05,7.0822E-07,-0.553724915,1.889814631,0.000186041,-0.002580372,-0.236568906
name_20,A,9,-0.000279011,-2.73669E-06,4.22896E-08,-0.386088801,1.931103949,8.73576E-07,-0.000653602,-0.070589718
name_20,A,10,-0.000165749,-6.95124E-06,3.44354E-07,-0.745709607,2.325690773,0.00059177,-0.001490513,-0.041934605
name_20,A,11,-0.000751168,-5.55283E-06,1.69216E-07,-0.082205831,2.1273525,0.000163865,-0.00144825,-0.190045623
name_20,A,12,-0.000279492,-3.67963E-06,7.95273E-08,-0.414893152,1.745289835,9.18007E-05,-0.000774942,-0.070711548
name_20,A,13,0.000310012,-1.00694E-06,8.98031E-08,-0.261612827,1.607202221,0.000747133,-0.000156946,0.078433022
name_20,A,14,-9.16654E-05,-1.54579E-06,2.3279E-08,-0.726931813,2.294022221,0.000111095,-0.000381189,-0.023191341
name_20,A,15,-6.61539E-05,-2.52844E-06,6.70724E-08,-0.933838656,2.382555283,0.000201739,-0.000642665,-0.016736933
name_20,C,1,0.000259232,7.81874E-06,1.03626E-06,0.254750681,1.973421847,0.002072407,-0.001269642,0.065585647
name_20,C,2,-0.000156337,-9.78521E-06,9.93738E-07,-0.499641776,2.134227153,0.001280462,-0.001989129,-0.039553312
name_20,C,3,0.00068784,-1.46244E-06,2.38229E-07,0.439636546,2.042539544,0.001591452,-0.000243974,0.174023587
name_20,C,4,0.001411779,-1.96233E-06,8.05062E-07,0.172277173,1.811722093,0.002919397,-0.000133952,0.35718002
name_20,C,5,0.000784125,-1.76661E-07,5.12751E-07,0.251279914,1.405524306,0.001843293,-7.16221E-05,0.198383684
name_20,C,6,0.000654599,-2.3112E-06,2.70115E-07,0.031029385,1.660068922,0.001455972,-0.000238077,0.165613645
name_20,C,7,0.001552283,2.20525E-06,8.55428E-07,0.016793439,1.771270487,0.002993155,-0.000152209,0.392727479
name_20,C,8,8.01877E-06,-6.02483E-07,2.32726E-07,0.118860197,1.765506779,0.00078019,-0.000789966,0.00202875
name_20,C,9,-0.000241669,7.91037E-07,7.12398E-08,-0.67281503,2.319930569,0.000125436,-0.000775841,-0.061142156
name_20,C,10,0.000939135,1.09663E-06,6.05888E-07,0.218024404,1.480034272,0.002152369,-6.29123E-05,0.23760112
name_20,C,11,0.000206,1.54046E-06,9.01453E-08,-0.030081681,2.271682198,0.000761576,-0.000353249,0.05211789
name_20,C,12,-3.96079E-05,1.33891E-06,4.76132E-08,0.444697238,2.291098218,0.000401052,-0.00033873,-0.010020809
name_20,C,13,0.00090668,2.09464E-08,4.1515E-07,0.208826104,1.985274395,0.002106825,-5.26031E-05,0.229390103
name_20,C,14,0.000600375,-3.94127E-07,1.91662E-07,0.061229586,1.763315527,0.001355662,-2.52945E-05,0.15189496
name_20,C,15,0.000515913,-6.9777E-07,2.32217E-07,0.179981199,1.606532315,0.001339126,-0.000111078,0.130525897
name_20,B,1,0.002110744,2.63405E-05,4.44705E-06,0.142044275,1.259541481,0.005114086,-0.000330443,0.534018279
name_20,B,2,0.003881818,3.17752E-05,8.05909E-06,-0.004666202,1.681707888,0.008350814,-0.000123108,0.982099995
name_20,B,3,0.00075371,1.06441E-05,1.3225E-06,0.085024218,1.730886506,0.002635603,-0.001047833,0.190688726
name_20,B,4,0.002148754,2.6117E-05,7.13235E-06,0.308182847,1.692745899,0.006775112,-0.001449769,0.543634669
name_20,B,5,0.00327366,3.59978E-05,9.97522E-06,0.111253094,1.332186034,0.008006737,-0.000485256,0.828235959
name_20,B,6,0.001460952,1.41148E-05,1.38172E-06,0.042724898,1.205017917,0.003072722,-1.78802E-05,0.369620856
name_20,B,7,0.003823843,4.56259E-05,1.7275E-05,0.040274268,1.356480434,0.009911836,-0.001895264,0.96743232
name_20,B,8,0.001733484,2.47378E-05,6.44087E-06,0.002351263,1.61951489,0.005663997,-0.002204147,0.438571352
name_20,B,9,0.000132421,-1.32261E-08,5.20958E-08,-0.152241462,1.418894135,0.000448406,-0.000219923,0.033502611
name_20,B,10,0.004270623,4.80645E-05,1.79905E-05,0.083444245,1.300515627,0.01047957,-0.001111401,1.080467574
name_20,B,11,0.002981089,2.76596E-05,6.26272E-06,0.024571033,1.551919627,0.006856783,-0.000328099,0.754215604
name_20,B,12,0.000959179,9.53757E-06,1.00838E-06,0.463880689,1.795094262,0.002777552,-9.49418E-05,0.242672171
name_20,B,13,0.003303444,3.10276E-05,7.26278E-06,0.024234529,1.51214836,0.007452268,-0.000193936,0.835771447
name_20,B,14,0.002106795,2.03854E-05,3.54022E-06,0.350810817,1.769022811,0.005454056,-0.000189167,0.53301902
name_20,B,15,0.001726997,1.80766E-05,2.54058E-06,0.25412717,1.510510828,0.004372914,-7.03825E-05,0.43693034
name_21,B,1,0.00057426,2.51835E-06,1.81685E-07,-0.451337632,2.31156491,0.001191375,-0.000288605,0.145287664
name_21,B,2,0.001182039,7.58198E-06,3.73563E-07,-0.743928802,2.209144227,0.002156693,-2.60516E-05,0.299055909
name_21,B,3,0.000174512,-7.79547E-07,1.52492E-08,-0.148396001,1.462396198,0.000331649,-9.52079E-05,0.044151648
name_21,B,4,0.001178773,3.64323E-06,3.18637E-07,-0.235806342,2.725797556,0.002162621,-8.77299E-05,0.298229646
name_21,B,5,0.000584953,1.01898E-07,9.41861E-08,0.111379111,2.895993383,0.001186959,-0.000161475,0.147993181
name_21,B,6,0.001041174,3.23839E-06,2.13302E-07,-0.949592956,2.89853163,0.001573454,-8.70793E-05,0.263417013
name_21,B,7,0.000731331,-3.18905E-06,2.83263E-07,-0.209120295,1.576051379,0.001472756,-0.000410725,0.185026619
name_21,B,8,0.000302784,-4.53543E-06,2.30011E-07,-0.534416076,1.819031589,0.000860055,-0.000681101,0.076604358
name_21,B,9,7.56098E-05,-3.18402E-06,9.44863E-08,-0.255802132,1.412639053,0.000453047,-0.000420533,0.019129278
name_21,B,10,5.08141E-05,-7.9988E-06,5.05657E-07,-0.161351787,1.394678027,0.001050939,-0.000959295,0.012855966
name_21,B,11,0.000238298,-4.98329E-06,2.46965E-07,0.020156455,1.635826656,0.001074768,-0.00048988,0.060289275
name_21,B,12,0.000705745,1.27626E-06,6.33694E-08,-1.476975897,5.429605163,0.001040879,-0.000165875,0.178553465
name_21,B,13,0.000499269,-5.47436E-06,4.18693E-07,-0.160578125,1.625468453,0.001483709,-0.000576373,0.126314948
name_21,B,14,0.000746359,-7.09229E-07,1.13022E-07,-0.693166381,3.206983165,0.001245287,-0.000315196,0.188828825
name_21,B,15,0.001071284,2.01914E-06,1.61966E-07,-1.047307908,4.875996328,0.001718943,-0.000293261,0.271034973
name_21,A,1,0.007419387,4.42967E-05,3.07954E-05,-0.561624,2.18209779,0.016004597,-0.002728127,1.877104836
name_21,A,2,0.00548599,1.88958E-05,5.05186E-06,-1.417948335,3.707447472,0.007644729,-0.000245966,1.387955444
name_21,A,3,-0.000553615,-1.1056E-06,7.59538E-08,0.413783458,2.534238139,6.52078E-06,-0.000960707,-0.140064673
name_21,A,4,0.002290865,8.93427E-06,1.18763E-06,-0.981952007,2.689217414,0.003581567,-2.83442E-05,0.579588751
name_21,A,5,0.000953198,-1.34567E-06,1.74591E-07,-0.490337759,3.380235533,0.001670265,-0.000331645,0.241159081
name_21,A,6,0.000346751,1.12356E-06,6.50582E-08,-0.087213544,1.913257245,0.000772644,-0.000149254,0.08772795
name_21,A,7,-0.000184384,-3.91839E-06,1.03681E-07,-0.381518722,2.637167524,0.000360707,-0.000838995,-0.046649111
name_21,A,8,0.000378055,-3.28885E-06,1.42473E-07,-0.726272513,2.408575956,0.000860055,-0.00041831,0.095647849
name_21,A,9,0.000392507,-6.14299E-07,3.66209E-08,-0.398026414,2.553460296,0.000680272,-8.52576E-05,0.099304218
name_21,A,10,-5.44474E-05,-4.31834E-06,1.31633E-07,0.143602971,2.280494343,0.000625648,-0.000679125,-0.013775192
name_21,A,11,0.000866299,9.68367E-07,1.17158E-07,-0.938891168,4.195299773,0.001341735,-0.000290989,0.219173594
name_21,A,12,0.000710299,2.00495E-06,7.00554E-08,-1.141218398,4.718975199,0.001099339,-0.000159149,0.179705597
name_21,A,13,8.62192E-05,-2.86402E-06,1.10012E-07,0.710446541,2.766565646,0.000825997,-0.000409772,0.021813446
name_21,A,14,0.001156991,3.66665E-06,2.19157E-07,-0.916894164,3.441671424,0.001747897,-0.000215075,0.292718722
name_21,A,15,0.002114772,6.32763E-06,7.07978E-07,-1.401529764,4.019587537,0.003126405,-0.000145596,0.535037329
name_21,C,1,0.001499258,1.285E-05,1.39462E-06,0.662588345,3.452963117,0.005299133,-5.16659E-05,0.379312299
name_21,C,2,0.001700991,1.40739E-05,1.13574E-06,0.054289153,2.334113372,0.003585642,-4.88197E-05,0.430350691
name_21,C,3,-3.71084E-05,-3.47332E-06,8.589E-08,-0.296773239,2.381660141,0.00042788,-0.00068447,-0.009388428
name_21,C,4,0.001105421,4.56893E-06,2.09813E-07,-1.44929365,3.726001088,0.001516409,-1.61489E-05,0.279671599
name_21,C,5,0.000945369,4.9534E-07,1.62637E-07,-0.624977577,3.265289959,0.001584912,-0.000144863,0.239178309
name_21,C,6,0.000512744,-1.34702E-06,1.3235E-07,-0.672417406,2.137982934,0.000957532,-0.000354293,0.129724344
name_21,C,7,0.00101637,-1.12555E-07,1.64521E-07,-0.786554753,4.064692555,0.001690442,-0.000239421,0.257141651
name_21,C,8,0.000220757,-3.01155E-06,1.10624E-07,0.111625155,2.017650488,0.000792357,-0.000448331,0.055851554
name_21,C,9,0.000256193,-2.22992E-06,7.12233E-08,0.433900496,1.850052487,0.000729434,-0.000183711,0.064816729
name_21,C,10,0.000656459,-3.50329E-06,2.63137E-07,0.713795215,2.321520278,0.001688709,-0.00023674,0.166084021
name_21,C,11,-9.2301E-05,-6.65541E-06,3.61852E-07,0.54144812,2.060363598,0.001048915,-0.001074261,-0.023352152
name_21,C,12,0.000744591,3.76829E-07,9.91005E-08,-0.471467868,3.616501534,0.001301697,-0.000103925,0.188381586
name_21,C,13,0.000906608,-1.22868E-06,2.32031E-07,0.523078558,3.142613801,0.001941584,-0.000195545,0.229371901
name_21,C,14,0.00027221,-5.20908E-06,3.08944E-07,0.705278258,2.268136165,0.001377828,-0.000639944,0.068869057
name_21,C,15,0.001599725,2.69024E-06,4.05357E-07,-1.115384515,3.89038008,0.0024842,-0.000190895,0.404730349
name_22,B,1,0.00150428,9.60124E-06,8.17433E-07,0.566237949,4.317882602,0.004602099,-0.000154106,0.380582925
name_22,B,2,0.002962577,1.81819E-05,2.30266E-06,-0.747418195,2.363512726,0.005965478,-0.00020666,0.749531912
name_22,B,3,-0.000659509,-3.66504E-06,2.42087E-07,-0.088049832,3.801066719,0.001031206,-0.001772304,-0.166855853
name_22,B,4,0.000689312,7.17888E-06,3.02878E-07,0.302376229,2.201170077,0.002206505,-0.00017216,0.174395985
name_22,B,5,0.000296229,3.67084E-06,1.01287E-07,1.332422831,4.933929693,0.001518729,-0.00012712,0.074945884
name_22,B,6,-0.000315984,-9.35331E-07,2.80316E-08,0.64939,2.226918724,3.0788E-05,-0.000500613,-0.079943884
name_22,B,7,0.000821011,5.74541E-06,2.01178E-07,0.383292272,3.620132374,0.002263348,-0.000241156,0.207715682
name_22,B,8,-0.00019459,-1.17255E-06,3.04299E-08,-0.34737977,1.944312151,6.10247E-05,-0.000535713,-0.04923128
name_22,B,9,-0.000386666,-1.52668E-06,5.88014E-08,-0.082315405,1.797070057,2.35152E-05,-0.0007934,-0.097826384
name_22,B,10,0.000829066,3.49564E-06,1.41332E-07,-0.690080649,2.709735697,0.001286971,-0.000290611,0.209753793
name_22,B,11,0.000113123,-2.15034E-07,2.62557E-08,-0.025602534,1.806757758,0.000376146,-0.000225959,0.028620032
name_22,B,12,-0.000365131,-2.52548E-06,6.56027E-08,0.345873743,2.12501727,0.000118585,-0.000764949,-0.092378084
name_22,B,13,0.001117521,6.36387E-06,3.27361E-07,-0.674517646,1.986013119,0.001734763,-0.000210936,0.282732913
name_22,B,14,0.002685217,1.5676E-05,2.14643E-06,-0.779395419,2.107574202,0.004342661,-7.36801E-05,0.679359947
name_22,B,15,0.002562861,1.86151E-05,2.20282E-06,-0.641814653,1.790163887,0.004185972,-8.50122E-05,0.648403878
name_22,C,1,-0.000448757,-4.54401E-06,1.26286E-07,0.155738194,1.649692994,0.00011119,-0.00094335,-0.113535597
name_22,C,2,9.42601E-05,1.09955E-06,1.93402E-08,0.159488166,1.780644525,0.000345507,-0.000102701,0.023847794
name_22,C,3,-0.0001784,-1.94877E-06,2.99825E-08,0.610986389,2.2228908,0.000168044,-0.000415537,-0.045135109
name_22,C,4,8.05248E-05,1.01654E-06,1.30955E-08,-0.138742685,1.924422929,0.000255513,-0.000133609,0.020372782
name_22,C,5,-4.40965E-05,-4.73369E-07,6.44197E-09,0.361860176,1.831516648,0.000113694,-0.000150817,-0.011156427
name_22,C,6,-8.44146E-05,-1.60332E-06,2.73236E-08,0.469785885,2.502118299,0.000250241,-0.000352057,-0.021356895
name_22,C,7,0.000301783,3.14714E-06,6.27198E-08,-0.149967991,1.228067467,0.00061452,-2.34756E-05,0.076351053
name_22,C,8,0.000127048,-2.08672E-07,9.0633E-09,0.389546713,2.621819682,0.000333813,-8.20758E-05,0.032143245
name_22,C,9,7.97574E-05,-3.88893E-07,1.27295E-08,0.492464225,2.533245938,0.000325911,-0.000106546,0.02017861
name_22,C,10,0.000557218,4.4599E-06,1.15413E-07,0.123504263,1.846519927,0.001119349,-8.76515E-05,0.140976232
name_22,C,11,0.000245653,2.65956E-06,4.7566E-08,0.531375619,2.067150422,0.000668749,-2.85384E-05,0.062150158
name_22,C,12,-0.000147726,-1.71971E-06,2.66072E-08,-0.288568259,2.108727637,0.000102643,-0.000462979,-0.037374583
name_22,C,13,0.000457871,2.61678E-06,4.85395E-08,-0.614082097,2.229184729,0.000711418,-1.08235E-05,0.115841457
name_22,C,14,0.000349229,2.59853E-06,4.95627E-08,-0.459929557,1.528549564,0.000584456,-8.19208E-06,0.08835489
name_22,C,15,0.001104035,7.03262E-06,3.01757E-07,-0.80483261,2.310566887,0.001621441,-8.14376E-06,0.279320742
name_22,A,1,0.002098027,1.46018E-05,1.24224E-06,-0.688970712,2.089813723,0.003326229,-2.74999E-05,0.530800776
name_22,A,2,0.003447226,2.80802E-05,4.71786E-06,-0.310864279,1.510134838,0.005928876,-1.6083E-05,0.872148104
name_22,A,3,0.000138467,-5.74591E-07,1.17023E-07,0.080200344,1.860229992,0.000746941,-0.000377457,0.035032188
name_22,A,4,0.000514278,1.06719E-06,8.84225E-08,-0.161522046,1.700331245,0.000935404,-2.29074E-05,0.130112281
name_22,A,5,0.000326122,6.52707E-07,6.69794E-08,-0.025507449,1.535605604,0.000712033,-5.5359E-05,0.082508777
name_22,A,6,0.000183804,1.01051E-07,6.98114E-08,0.089228205,1.603259946,0.000590418,-0.00020368,0.046502377
name_22,A,7,0.000694237,1.86026E-06,1.32725E-07,-0.249342299,1.924223205,0.001206866,-1.83216E-05,0.17564191
name_22,A,8,0.0002699,4.52903E-07,5.85789E-08,-0.034210772,1.566338672,0.000631675,-0.00010277,0.068284774
name_22,A,9,0.000431561,1.53158E-06,1.02778E-07,0.07485861,1.563978085,0.000950509,-1.43108E-05,0.109184999
name_22,A,10,0.000825637,3.07371E-06,1.52288E-07,-0.385391033,2.507411267,0.001446069,-2.65385E-05,0.208886055
name_22,A,11,0.000522281,1.95143E-06,9.2731E-08,-0.133987401,1.735532726,0.000984515,-1.3644E-05,0.132137036
name_22,A,12,3.20536E-05,-2.52633E-07,1.05048E-07,-0.421983864,1.936287003,0.000448697,-0.000557161,0.008109572
name_22,A,13,0.000925071,5.56239E-06,2.00245E-07,-0.578199921,2.520474468,0.001544629,-3.79711E-05,0.234043051
name_22,A,14,0.002028449,2.00995E-05,2.30081E-06,-0.131312194,1.351404681,0.003857779,-1.62844E-05,0.513197567
name_22,A,15,0.001569467,1.69053E-05,1.57551E-06,0.155643307,1.482510242,0.003442282,-7.54256E-05,0.397075175
name_23,C,1,0.000728535,8.37259E-07,2.02484E-07,-0.205457507,2.112480228,0.001459753,-4.53109E-05,0.184319349
name_23,C,2,0.002562331,1.38009E-05,1.36798E-06,-1.132160826,2.917019511,0.003984359,-0.000135431,0.648269785
name_23,C,3,-0.000765208,-8.57269E-06,4.45499E-07,-0.381939536,1.841543301,6.4838E-05,-0.001909041,-0.193597703
name_23,C,4,5.80717E-05,-8.7816E-06,7.11173E-07,0.000831217,2.560260319,0.001561899,-0.001877631,0.014692134
name_23,C,5,0.000192706,-4.87598E-06,3.20406E-07,-0.498837742,2.423834124,0.001070423,-0.000938518,0.048754624
name_23,C,6,-0.000602945,-1.09122E-05,7.43746E-07,-0.617780942,2.295191463,0.000414869,-0.002586723,-0.152545023
name_23,C,7,1.66902E-05,-7.85359E-06,5.78005E-07,-0.179110392,2.141234591,0.001286724,-0.001315627,0.004222613
name_23,C,8,0.000251011,-4.7745E-06,2.80586E-07,-0.257103986,2.265799406,0.001085534,-0.000935857,0.063505666
name_23,C,9,-0.001276091,-1.93613E-05,2.1991E-06,-0.377001677,1.844216456,0.000542098,-0.00440548,-0.322851023
name_23,C,10,0.001410201,2.04005E-06,8.02702E-07,-0.083345708,1.743448837,0.002839703,-0.000116576,0.356780728
name_23,C,11,-0.000287706,-1.26354E-05,1.21429E-06,-0.555369219,2.445050183,0.001220977,-0.002833371,-0.072789658
name_23,C,12,0.000700023,-4.14008E-06,4.01418E-07,0.209391133,2.096612563,0.001825091,-0.00044424,0.177105884
name_23,C,13,-0.001877448,-1.35443E-05,1.54657E-06,0.772136478,1.880904572,0.000296358,-0.003168134,-0.47499434
name_23,C,14,0.001934148,1.06803E-05,8.72787E-07,-1.10852601,2.555044218,0.002736077,-0.000114856,0.489339419
name_23,C,15,-3.03302E-05,-4.46523E-06,2.72365E-07,-0.231673495,2.843461456,0.000851008,-0.001316651,-0.007673537
name_23,A,1,0.000224121,3.196E-07,1.39954E-07,0.226298592,1.588916999,0.000829201,-0.000320454,0.056702714
name_23,A,2,0.000208855,-3.83555E-06,2.54513E-07,-0.370852022,1.821703159,0.00093911,-0.000699866,0.052840375
name_23,A,3,-0.000539568,-5.28225E-06,1.85082E-07,-0.615797621,2.127814342,8.38593E-06,-0.001360581,-0.136510706
name_23,A,4,-0.000299601,-4.45225E-06,1.63116E-07,-0.668077464,1.970125762,0.000156816,-0.001059105,-0.075799154
name_23,A,5,-0.000574041,-5.67321E-06,2.03249E-07,-0.745891419,2.245851536,1.77568E-05,-0.001461954,-0.145232309
name_23,A,6,-0.000378903,-2.45842E-06,5.66122E-08,-0.849586844,3.026534776,3.63899E-05,-0.000913001,-0.095862504
name_23,A,7,-0.000775743,-7.51783E-06,3.80985E-07,-0.802445659,2.259891586,0.000101473,-0.002003602,-0.196263024
name_23,A,8,-0.000391134,-3.17651E-06,7.25673E-08,-0.806498089,2.45602605,5.00899E-05,-0.000940419,-0.098956912
name_23,A,9,-0.000522045,-4.613E-06,1.32606E-07,-0.391454361,2.108108637,9.2547E-06,-0.001208048,-0.132077475
name_23,A,10,1.07575E-05,-4.32697E-06,4.09937E-07,-0.62886204,2.158548539,0.00071009,-0.001263614,0.002721645
name_23,A,11,-0.000222687,-3.63385E-06,1.10582E-07,-0.996459309,2.343815166,7.42123E-05,-0.000906022,-0.056339845
name_23,A,12,-0.000287038,-3.6502E-06,9.42837E-08,-0.659784332,1.920857956,4.51561E-05,-0.000859978,-0.07262071
name_23,A,13,0.000426271,1.37774E-06,8.19957E-08,-0.101516875,1.871961292,0.000905175,-3.37813E-05,0.107846616
name_23,A,14,0.000550972,2.50804E-06,6.00275E-08,-1.253927836,3.333692822,0.00085417,-1.00101E-05,0.139395922
name_23,A,15,8.6951E-05,7.75174E-08,4.75201E-08,0.300311473,2.34325395,0.000520013,-0.000282481,0.021998607
name_23,B,1,0.000823377,9.16026E-07,8.62047E-08,-1.404662797,5.454712252,0.001225553,-0.000193259,0.208314284
name_23,B,2,0.00148432,5.13885E-06,3.19176E-07,-1.41081079,4.371221991,0.002148129,-4.31759E-05,0.375532834
name_23,B,3,0.000124468,-1.96624E-06,5.50006E-08,1.098349354,3.09446007,0.000677154,-0.000172187,0.03149049
name_23,B,4,0.000726765,-8.09735E-07,1.35439E-07,-0.077121614,3.084368855,0.001463846,-0.000268856,0.183871442
name_23,B,5,0.000118709,-2.93006E-06,8.51327E-08,0.754344351,2.356028142,0.000725155,-0.000275651,0.030033398
name_23,B,6,-0.001101365,-1.0698E-05,6.6157E-07,0.406564908,1.672141611,0.00021235,-0.002227508,-0.278645274
name_23,B,7,0.000763699,-3.09009E-06,2.49607E-07,0.78297866,2.782067225,0.001847521,-0.00018452,0.19321579
name_23,B,8,-0.000390615,-6.115E-06,2.25191E-07,0.254996909,1.610834967,0.000391695,-0.001065952,-0.098825663
name_23,B,9,-0.000982353,-8.42984E-06,4.28903E-07,0.554907529,1.706352185,7.82501E-05,-0.001761897,-0.248535241
name_23,B,10,0.000165277,-1.25351E-05,1.41348E-06,0.513426802,2.174831178,0.002472027,-0.001358153,0.04181505
name_23,B,11,-0.000332446,-6.75759E-06,3.10598E-07,0.462971761,1.829772295,0.000677471,-0.001008465,-0.084108815
name_23,B,12,-0.000402269,-4.41675E-06,1.34045E-07,0.61621331,1.843906732,0.000259845,-0.000844566,-0.101774112
name_23,B,13,0.000761329,9.07963E-07,1.64958E-07,-0.111830978,2.616764469,0.00151842,-0.000368322,0.192616154
name_23,B,14,0.000398471,7.51782E-07,2.5189E-08,-1.20550579,4.206671596,0.0006391,-1.83862E-05,0.100813213
name_23,B,15,0.000334807,-1.60704E-06,8.37675E-08,0.686475167,2.442342041,0.000963599,-7.88695E-05,0.084706166
name_24,C,1,0.000771532,4.90152E-06,1.96104E-07,-0.698775242,1.926089656,0.001274144,-3.16966E-05,0.19519761
name_24,C,2,0.001164243,6.34554E-06,4.13495E-07,-0.272031469,1.757243105,0.002123257,-0.000155781,0.294553434
name_24,C,3,0.000765939,3.10648E-06,2.84586E-07,0.268488637,2.451068747,0.001853709,-0.000103279,0.193782563
name_24,C,4,0.000925736,5.62961E-06,2.93551E-07,-0.136434106,1.918184414,0.001795322,-0.000143384,0.234211316
name_24,C,5,0.000898062,6.25054E-06,3.22921E-07,-0.181485027,1.803394459,0.001792116,-0.000106441,0.227209752
name_24,C,6,0.000853546,5.31203E-06,2.89145E-07,-0.414989111,1.767720176,0.001569483,-8.96753E-05,0.215947228
name_24,C,7,0.000732098,4.30909E-06,2.8864E-07,0.03034208,1.939044708,0.001658141,-0.000170973,0.185220781
name_24,C,8,0.000354112,2.37676E-06,1.16126E-07,-0.206021017,2.185818624,0.000935564,-0.000310529,0.089590306
name_24,C,9,0.000256156,2.71904E-06,2.27471E-07,-0.60483746,2.654666608,0.001016335,-0.000781449,0.064807367
name_24,C,10,0.000598527,3.53404E-06,2.71591E-07,0.021236104,2.102329603,0.001550324,-0.00033681,0.151427209
name_24,C,11,0.000657865,5.70688E-06,3.39971E-07,-0.268029471,1.746208562,0.001471972,-0.000391232,0.166439963
name_24,C,12,0.000789054,4.38102E-06,2.66739E-07,-0.093192648,1.869122547,0.001670685,-5.21935E-05,0.199630763
name_24,C,13,0.000748068,3.90011E-06,3.59997E-07,-0.199630176,2.114667933,0.001764637,-0.00038611,0.189261101
name_24,C,14,0.000354077,9.1887E-07,1.52369E-07,0.537040771,2.722692735,0.00120665,-0.000349846,0.089581556
name_24,C,15,0.000778411,3.15011E-06,1.11498E-07,-0.693875716,3.172904224,0.001303757,-4.22554E-05,0.196937938
name_24,B,1,0.002339251,2.44648E-05,3.36085E-06,0.560780713,2.297757866,0.006386622,-2.55532E-05,0.591830529
name_24,B,2,0.000177866,7.78103E-06,4.71501E-07,0.677652199,1.972851061,0.001551617,-0.000690667,0.045000137
name_24,B,3,-0.000718468,-3.97735E-06,2.5217E-07,0.165566865,2.392540864,0.000309624,-0.00157672,-0.181772468
name_24,B,4,-2.87797E-05,2.85094E-06,1.63737E-07,-0.217241331,2.36907708,0.000681341,-0.000835485,-0.007281253
name_24,B,5,-0.00014351,-1.58873E-06,9.02317E-08,-0.149558404,1.85917543,0.000338617,-0.000703659,-0.03630793
name_24,B,6,0.000322912,-7.87015E-07,1.36024E-07,-0.25183984,2.310763694,0.000969919,-0.000389286,0.081696696
name_24,B,7,-0.000673632,-2.92606E-06,1.61734E-07,0.257023236,2.269034798,0.000165156,-0.001408763,-0.170428827
name_24,B,8,0.000122599,3.85804E-07,4.32684E-08,0.070094202,1.712735693,0.00046287,-0.000242137,0.031017428
name_24,B,9,0.000802214,3.5939E-06,1.74437E-07,-0.254563024,2.079899845,0.001413073,-0.00025032,0.202960216
name_24,B,10,-0.000574653,-3.32622E-06,1.52623E-07,0.153417794,2.309686376,0.000225781,-0.0013126,-0.145387163
name_24,B,11,0.000129691,9.29142E-07,4.95184E-08,-0.110140972,1.893414543,0.000477857,-0.000294109,0.032811812
name_24,B,12,0.000137538,2.11238E-06,9.85054E-08,0.221882168,2.235375196,0.000754636,-0.000392301,0.034797193
name_24,B,13,2.9519E-05,2.3119E-06,1.72198E-07,-0.146655769,2.173387463,0.000757596,-0.000776862,0.007468302
name_24,B,14,4.16746E-05,2.64104E-06,8.32089E-08,-0.032685008,2.513258008,0.000566082,-0.000511082,0.010543669
name_24,B,15,0.002709619,2.95994E-05,4.98802E-06,0.511795766,1.828861292,0.006472045,-0.000252543,0.685533504
name_24,A,1,-0.000293988,-2.12227E-06,4.91757E-08,-0.909563929,3.152520615,0.000113431,-0.000879561,-0.074378914
name_24,A,2,0.000402588,6.73366E-06,3.93096E-07,0.954353244,2.303427448,0.001660856,-0.000210484,0.101854789
name_24,A,3,-0.000682233,1.87019E-06,5.32802E-07,0.071787619,1.956313196,0.000516942,-0.001931307,-0.172604974
name_24,A,4,-0.000357515,-1.15551E-06,1.59717E-07,-0.911079016,2.760627556,0.000144863,-0.00125702,-0.090451311
name_24,A,5,-0.000498354,-1.92255E-06,2.22149E-07,-0.899413351,2.659727697,0.000130104,-0.001522051,-0.126083563
name_24,A,6,-0.00115148,-5.67755E-06,4.86726E-07,-0.235637994,2.456934564,7.21823E-05,-0.002482211,-0.291324452
name_24,A,7,-0.000416225,3.00368E-07,1.87687E-07,-0.775138809,2.414918804,8.54992E-05,-0.001345454,-0.105304845
name_24,A,8,-0.000471868,-1.37569E-06,1.45058E-07,-0.843646327,2.583153648,1.97208E-05,-0.001294795,-0.119382636
name_24,A,9,-9.93474E-05,1.07334E-06,1.42665E-07,-0.233859455,1.856884478,0.000493727,-0.00080185,-0.025134894
name_24,A,10,-0.000403894,9.78674E-07,2.40301E-07,-0.624801346,2.329002948,0.000236408,-0.001423334,-0.102185069
name_24,A,11,-0.000259007,1.69165E-06,1.43884E-07,-0.171273736,1.906425069,0.000318028,-0.000954928,-0.065528833
name_24,A,12,-0.000122372,2.56112E-06,1.49772E-07,0.190615855,1.866434548,0.000497819,-0.000682782,-0.030960007
name_24,A,13,-0.000415224,-4.84773E-07,2.57083E-07,-0.820139407,2.517059274,0.00021548,-0.001520409,-0.105051554
name_24,A,14,-6.55538E-05,3.01482E-06,1.55149E-07,0.417977718,2.037870252,0.000649828,-0.000647275,-0.016585119
name_24,A,15,-0.000412473,-2.06088E-06,5.60879E-08,-0.160932001,2.183261246,2.29838E-05,-0.000843651,-0.104355689
name_25,C,1,0.000113879,-5.39905E-06,3.68629E-07,-0.385925578,1.634803632,0.000925667,-0.00087945,0.028811412
name_25,C,2,-0.000852791,-9.76005E-07,2.32064E-07,0.041298616,1.885164903,0.000122092,-0.001656135,-0.215756179
name_25,C,3,-0.000167262,-2.89789E-06,8.62283E-08,-0.428458412,1.714245947,0.000257974,-0.000642722,-0.042317382
name_25,C,4,0.000690735,1.7173E-06,3.46598E-07,0.674277153,2.238039111,0.001863884,-6.49729E-05,0.174756071
